time,ecg
0.0,-0.023094795372838515
0.002777777777777778,-0.015644648459746245
0.005555555555555556,0.019711544005924998
0.008333333333333333,-0.06587219566437932
0.011111111111111112,-0.03948383158860016
0.01388888888888889,-0.0173079173659956
0.016666666666666666,0.06387390353599741
0.019444444444444445,0.008312757967795618
0.022222222222222223,0.04035940562881728
0.025,0.04636048263456956
0.02777777777777778,0.010811205848099205
0.030555555555555558,-0.013649202698384617
0.03333333333333333,0.018152597861077688
0.036111111111111115,-0.003166572452698815
0.03888888888888889,0.05979021378070242
0.04166666666666667,0.009833457838469676
0.044444444444444446,0.06606969791531146
0.04722222222222222,0.04500301038967145
0.05,-0.029085738063805593
0.05277777777777778,0.01837930594102339
0.05555555555555556,-0.019077189811704073
0.058333333333333334,0.041294382390029076
0.061111111111111116,0.011020490846072827
0.0638888888888889,-0.015070609385172852
0.06666666666666667,-0.011674526534164117
0.06944444444444445,0.02701259825388444
0.07222222222222223,0.040736242770766824
0.075,-0.03552594580670163
0.07777777777777778,0.001013261685237062
0.08055555555555556,-0.06963737812891373
0.08333333333333334,0.06282327245696531
0.08611111111111111,-0.0006171567564731712
0.08888888888888889,0.010211708700089889
0.09166666666666667,0.00937075864157803
0.09444444444444444,0.020013198797430798
0.09722222222222222,-0.013989325751198985
0.1,0.039079208165576924
0.10277777777777779,0.03846999950494739
0.10555555555555556,0.10250179326981299
0.10833333333333334,0.09758836502666673
0.11111111111111112,0.09543132845902758
0.11388888888888889,0.10644831490577537
0.11666666666666667,0.08880982306952291
0.11944444444444445,0.10149702659376389
0.12222222222222223,0.15141460236308787
0.125,0.17797979334017527
0.1277777777777778,0.18295608914124117
0.13055555555555556,0.17486828073801441
0.13333333333333333,0.21677238127884624
0.13611111111111113,0.14799818681168253
0.1388888888888889,0.27586255979749763
0.14166666666666666,0.28053586844885026
0.14444444444444446,0.2136391564936737
0.14722222222222223,0.2197441393107757
0.15,0.25107619050615665
0.1527777777777778,0.2695703081029097
0.15555555555555556,0.2866531382853241
0.15833333333333333,0.37537368030386675
0.16111111111111112,0.31396013424362573
0.1638888888888889,0.36116032116162383
0.16666666666666669,0.3686235934382758
0.16944444444444445,0.32696570605684255
0.17222222222222222,0.31809759322064013
0.17500000000000002,0.3366388225633645
0.17777777777777778,0.33555778765622984
0.18055555555555555,0.31507488733067823
0.18333333333333335,0.3714648147124339
0.18611111111111112,0.33195769715218376
0.18888888888888888,0.30100360196275583
0.19166666666666668,0.3524273406029393
0.19444444444444445,0.30947628904060115
0.19722222222222224,0.32536228544917317
0.2,0.30197099802254673
0.20277777777777778,0.2586319845273881
0.20555555555555557,0.26645930950894764
0.20833333333333334,0.2616313400724014
0.2111111111111111,0.2830017462761394
0.2138888888888889,0.23422927567455573
0.21666666666666667,0.19421351810813436
0.21944444444444444,0.22797058677510498
0.22222222222222224,0.179186572641517
0.225,0.1746534055255472
0.22777777777777777,0.22448709133852893
0.23055555555555557,0.1572381350025775
0.23333333333333334,0.18157051944041686
0.23611111111111113,0.14789472942091644
0.2388888888888889,0.14404983177943614
0.24166666666666667,0.13554510044022078
0.24444444444444446,0.05732688368678712
0.24722222222222223,0.04541493916093275
0.25,0.047047866230278776
0.25277777777777777,0.057390778929976426
0.2555555555555556,-0.0032506772861497606
0.25833333333333336,0.06004642622303111
0.2611111111111111,-0.005521745733182495
0.2638888888888889,0.03160046161089393
0.26666666666666666,0.04966918017728719
0.26944444444444443,-0.012014981016447594
0.27222222222222225,0.06737402016492394
0.275,-0.0030334910436946236
0.2777777777777778,0.04906436960500267
0.28055555555555556,0.030887501007358195
0.2833333333333333,0.06753830333227562
0.28611111111111115,0.04643673871302599
0.2888888888888889,0.005354539205933172
0.2916666666666667,0.053140402220474184
0.29444444444444445,-0.012416588471936357
0.2972222222222222,0.0911088846206507
0.3,0.032117029452700674
0.3027777777777778,0.030321001255707802
0.3055555555555556,0.06640096760683582
0.30833333333333335,0.09442649593790028
0.3111111111111111,0.056676526807375546
0.3138888888888889,0.020275383937740765
0.31666666666666665,0.0760961101892586
0.3194444444444445,-0.023309985848224742
0.32222222222222224,0.06189188842425374
0.325,0.0686270092990498
0.3277777777777778,0.00010333777245381467
0.33055555555555555,0.0434267813427694
0.33333333333333337,0.035799970061829785
0.33611111111111114,0.02195464121541928
0.3388888888888889,0.09324338002238278
0.3416666666666667,0.07704667037684193
0.34444444444444444,0.0348695219758636
0.3472222222222222,-0.006155866160027296
0.35000000000000003,0.0610620919861729
0.3527777777777778,-0.0078048240701828475
0.35555555555555557,0.013830169417397821
0.35833333333333334,0.10720161697336189
0.3611111111111111,0.03604922254014357
0.36388888888888893,0.03762528976439805
0.3666666666666667,0.08655837271339671
0.36944444444444446,0.06736179017548541
0.37222222222222223,0.04671291259928577
0.375,0.0553893432063791
0.37777777777777777,0.015208906241855141
0.3805555555555556,0.022438224552893817
0.38333333333333336,-0.009067684754190813
0.3861111111111111,0.019287032805069694
0.3888888888888889,-0.004088912515804614
0.39166666666666666,0.07692682882454083
0.3944444444444445,0.0010531190082697997
0.39722222222222225,0.04636804106005622
0.4,0.07101527393200771
0.4027777777777778,0.08078366396756756
0.40555555555555556,0.011754302432691075
0.4083333333333333,0.04176679301811268
0.41111111111111115,0.07831919845658258
0.4138888888888889,0.05149686652501188
0.4166666666666667,0.05066314357140857
0.41944444444444445,0.04575647513639641
0.4222222222222222,0.011768207875197865
0.425,0.03547046102857719
0.4277777777777778,0.0036493158000844433
0.4305555555555556,0.10583863687074224
0.43333333333333335,0.03931148928862535
0.4361111111111111,0.047612039512230614
0.4388888888888889,0.05264016289524526
0.4416666666666667,0.05614729067769103
0.4444444444444445,0.05771695051498714
0.44722222222222224,0.04665855810672164
0.45,0.025051940551382244
0.4527777777777778,0.029793476417372892
0.45555555555555555,0.08844082991267951
0.45833333333333337,0.01749839478256606
0.46111111111111114,0.021270669025588856
0.4638888888888889,0.0686113755477052
0.4666666666666667,0.0774170256503938
0.46944444444444444,0.04967823438973877
0.47222222222222227,0.03345030177819888
0.47500000000000003,0.03461018552187206
0.4777777777777778,0.00227254566036994
0.48055555555555557,0.04061307338303149
0.48333333333333334,0.042873310576138024
0.4861111111111111,0.06374482248461072
0.48888888888888893,0.008578160134559573
0.4916666666666667,0.034487997355678535
0.49444444444444446,0.060441670226826796
0.49722222222222223,0.022787145999307534
0.5,0.009914759811722094
0.5027777777777778,0.01934220316863768
0.5055555555555555,0.030368135320063338
0.5083333333333333,0.06024306452783944
0.5111111111111112,0.02556096626093146
0.513888888888889,0.07532906233778361
0.5166666666666667,0.02818895902026334
0.5194444444444445,0.023791114903627723
0.5222222222222223,0.05968667064538016
0.525,0.03903829969997427
0.5277777777777778,0.0278702779838794
0.5305555555555556,0.016612922132983803
0.5333333333333333,0.10583234280236126
0.5361111111111111,-0.022152085234200307
0.5388888888888889,0.08910416194340584
0.5416666666666667,-0.008327338351557897
0.5444444444444445,0.06637814798246813
0.5472222222222223,0.013446704419037038
0.55,0.011439223763119712
0.5527777777777778,0.04767735539768457
0.5555555555555556,0.05465946868106221
0.5583333333333333,0.059581099381102315
0.5611111111111111,0.05106637685570383
0.5638888888888889,0.06986249804600222
0.5666666666666667,0.11538673926349932
0.5694444444444444,0.09168642821869627
0.5722222222222223,0.018444187212573453
0.5750000000000001,0.05493539580752754
0.5777777777777778,0.05762705581365678
0.5805555555555556,0.008062852278144114
0.5833333333333334,0.017020369314185147
0.5861111111111111,-0.0005692802786689821
0.5888888888888889,0.049482913080832205
0.5916666666666667,0.05718492805225357
0.5944444444444444,0.09622509605765997
0.5972222222222222,0.09534023370008347
0.6,0.000440351355837032
0.6027777777777777,0.024372265884012142
0.6055555555555556,0.055180132152391766
0.6083333333333334,0.045738768968878775
0.6111111111111112,0.045538943104899345
0.6138888888888889,0.11100055569413136
0.6166666666666667,0.012392974672949739
0.6194444444444445,0.06306954648587729
0.6222222222222222,0.08354301709975828
0.625,0.0776125844885451
0.6277777777777778,-0.030168964929050558
0.6305555555555555,0.06948586304865981
0.6333333333333333,0.0035407365158536264
0.6361111111111112,0.033144916993924696
0.638888888888889,0.05412832951940756
0.6416666666666667,0.06880238901681739
0.6444444444444445,0.04680208443504478
0.6472222222222223,0.028690298653967175
0.65,0.03873185785214835
0.6527777777777778,0.020327031452970556
0.6555555555555556,-0.013544839960798347
0.6583333333333333,0.012705983970842785
0.6611111111111111,0.0499913085819806
0.6638888888888889,0.09822188164565374
0.6666666666666667,0.0844920419331924
0.6694444444444445,0.05004047154665396
0.6722222222222223,0.035503978981097785
0.675,0.105837408628411
0.6777777777777778,0.1390382297870333
0.6805555555555556,0.11704526529500094
0.6833333333333333,0.13900669890444103
0.6861111111111111,0.09016595974149869
0.6888888888888889,0.12465162323605906
0.6916666666666667,0.1555625009352448
0.6944444444444444,0.18706446907763402
0.6972222222222223,0.1720504163735948
0.7000000000000001,0.17366377665169866
0.7027777777777778,0.1918949758619805
0.7055555555555556,0.22093137792918371
0.7083333333333334,0.18969876602983096
0.7111111111111111,0.19492883045630474
0.7138888888888889,0.18966927910999365
0.7166666666666667,0.18027750480314797
0.7194444444444444,0.20551402676095243
0.7222222222222222,0.12609711272413698
0.725,0.16592789373618694
0.7277777777777779,0.14731344950772068
0.7305555555555556,0.12805728486597825
0.7333333333333334,0.12147881464829942
0.7361111111111112,0.05524795451020854
0.7388888888888889,0.11743806322120529
0.7416666666666667,0.09148407313948723
0.7444444444444445,0.04028489974116657
0.7472222222222222,0.061308422991082065
0.75,0.08404606566794748
0.7527777777777778,0.07603305403393339
0.7555555555555555,0.038326375305356944
0.7583333333333334,0.03645719876576327
0.7611111111111112,0.09815483178038797
0.763888888888889,0.052579049182526795
0.7666666666666667,0.019193372150876502
0.7694444444444445,0.02436058019316455
0.7722222222222223,0.1127582334621409
0.775,0.07610583934523096
0.7777777777777778,0.025380749168081303
0.7805555555555556,0.0748466050277755
0.7833333333333333,0.09129109383801484
0.7861111111111111,0.022391891265900413
0.788888888888889,-0.04381299642294566
0.7916666666666667,-0.06234148437521868
0.7944444444444445,-0.13158289931286282
0.7972222222222223,-0.1719147375575587
0.8,-0.12184260708551327
0.8027777777777778,-0.1409897850754907
0.8055555555555556,-0.03907850928275488
0.8083333333333333,-0.022886188830916983
0.8111111111111111,0.052039220501180226
0.8138888888888889,0.5172220225055654
0.8166666666666667,1.0075137600965378
0.8194444444444445,1.3511641849350724
0.8222222222222223,1.4947522723805255
0.8250000000000001,1.5593777732242313
0.8277777777777778,1.3469942358481348
0.8305555555555556,0.9899083133263624
0.8333333333333334,0.570099480543603
0.8361111111111111,0.03295920826059637
0.8388888888888889,-0.01627317509944444
0.8416666666666667,-0.15130454072606536
0.8444444444444444,-0.2200076442427286
0.8472222222222222,-0.22291637496584177
0.85,-0.2654930855008035
0.8527777777777779,-0.27026253655446764
0.8555555555555556,-0.20719841193658137
0.8583333333333334,-0.08728429847569408
0.8611111111111112,-0.055132933902972976
0.8638888888888889,0.04803810265705272
0.8666666666666667,0.02385868873910607
0.8694444444444445,0.0010726235085447566
0.8722222222222222,0.07107107506571167
0.875,0.053668421061519984
0.8777777777777778,0.07227893644900624
0.8805555555555555,0.032194460711004874
0.8833333333333334,-0.0015452076953413468
0.8861111111111112,-0.0070038106622653945
0.888888888888889,0.13347654230541017
0.8916666666666667,0.022348075656451808
0.8944444444444445,0.02826074910913033
0.8972222222222223,0.019226207883509813
0.9,0.018966070727795884
0.9027777777777778,0.08734989189587336
0.9055555555555556,0.09005042242319167
0.9083333333333333,0.09204624490136021
0.9111111111111111,0.15194748755114523
0.913888888888889,0.14637635483502315
0.9166666666666667,0.08607196950610776
0.9194444444444445,0.10477773431075058
0.9222222222222223,0.15873201811175275
0.925,0.1752905771716269
0.9277777777777778,0.1885116611806548
0.9305555555555556,0.22841893019594484
0.9333333333333333,0.19109491743630308
0.9361111111111111,0.21702239700566361
0.9388888888888889,0.23103863199867922
0.9416666666666667,0.25644208320502915
0.9444444444444445,0.28023490043657817
0.9472222222222223,0.28922397608691286
0.9500000000000001,0.33923952662134305
0.9527777777777778,0.34359674857240063
0.9555555555555556,0.25702247203706596
0.9583333333333334,0.32000740803449185
0.9611111111111111,0.33712865925343166
0.9638888888888889,0.3023617889935775
0.9666666666666667,0.32066380531469985
0.9694444444444444,0.3557742298848301
0.9722222222222222,0.32320663825843793
0.9750000000000001,0.31235342765132135
0.9777777777777779,0.34024755272230983
0.9805555555555556,0.3668183837317046
0.9833333333333334,0.36435904526724416
0.9861111111111112,0.40769834904487495
0.9888888888888889,0.33790281819453977
0.9916666666666667,0.3268490671282891
0.9944444444444445,0.33036888952537924
0.9972222222222222,0.35063710776031354
1.0,0.35779046014841503
1.0027777777777778,0.3260180984373126
1.0055555555555555,0.3280444905119141
1.0083333333333333,0.33899577096040695
1.011111111111111,0.32002587409102057
1.0138888888888888,0.2936636022943773
1.0166666666666666,0.28741453004932876
1.0194444444444444,0.31654376433425563
1.0222222222222224,0.25965505377979703
1.0250000000000001,0.23749888591083063
1.027777777777778,0.18792517271453582
1.0305555555555557,0.22568998910634339
1.0333333333333334,0.21865419161552593
1.0361111111111112,0.17433238935618192
1.038888888888889,0.20463527388787192
1.0416666666666667,0.16043764993515885
1.0444444444444445,0.11446918314794566
1.0472222222222223,0.1721730122257702
1.05,0.16572083299465867
1.0527777777777778,0.08092579479425216
1.0555555555555556,0.055507368559145905
1.0583333333333333,0.05025260889025581
1.0611111111111111,0.07022557582740947
1.0638888888888889,0.06102678128909614
1.0666666666666667,0.024652720226173437
1.0694444444444444,0.01139713335936119
1.0722222222222222,0.0779822091934823
1.075,0.04067149577138404
1.0777777777777777,0.07183118085915412
1.0805555555555555,0.018696282326637337
1.0833333333333335,0.051108924027054844
1.0861111111111112,0.05295225741425352
1.088888888888889,0.06392075494371989
1.0916666666666668,0.02930497257618444
1.0944444444444446,0.0883236187815465
1.0972222222222223,0.02796795350473906
1.1,-0.006752169250181184
1.1027777777777779,0.07401212193820308
1.1055555555555556,0.011627394436013419
1.1083333333333334,0.011841855130090458
1.1111111111111112,0.026639031545815102
1.113888888888889,0.02356908913580981
1.1166666666666667,0.10307911865193647
1.1194444444444445,0.10871408926058854
1.1222222222222222,0.06729461274247278
1.125,0.049080188028284864
1.1277777777777778,0.07423414177913781
1.1305555555555555,0.03908312412163207
1.1333333333333333,0.06942458551549051
1.136111111111111,0.017847722436002758
1.1388888888888888,0.056500826197959306
1.1416666666666666,-0.005456521789893948
1.1444444444444446,0.08004174263061012
1.1472222222222224,0.04473210372550539
1.1500000000000001,0.022920747308544865
1.152777777777778,0.0990970502770866
1.1555555555555557,0.034958033183285546
1.1583333333333334,0.053751751162461586
1.1611111111111112,0.02572489200053822
1.163888888888889,0.07480016946798002
1.1666666666666667,0.06780593151780002
1.1694444444444445,0.030008559198179775
1.1722222222222223,-0.0004408636597363416
1.175,0.07683840872032703
1.1777777777777778,0.06860322196196741
1.1805555555555556,0.055139970352049
1.1833333333333333,0.06758720420535326
1.1861111111111111,0.024351113489312154
1.1888888888888889,0.07921987955950735
1.1916666666666667,0.03836377897260463
1.1944444444444444,-0.0058648304498811615
1.1972222222222222,0.034326788046043125
1.2,0.07088264149958848
1.2027777777777777,0.09162138974769393
1.2055555555555555,0.061156890337004235
1.2083333333333335,0.05610447476194543
1.2111111111111112,0.054218197232484486
1.213888888888889,0.0059089213355461925
1.2166666666666668,0.011663067895167863
1.2194444444444446,0.0070910921633133735
1.2222222222222223,0.06795467947601741
1.225,-0.05944979084226173
1.2277777777777779,0.06554361964600984
1.2305555555555556,0.037761545531264123
1.2333333333333334,0.02775692520104151
1.2361111111111112,0.009958091410406208
1.238888888888889,0.01101986975504566
1.2416666666666667,0.028444923887525102
1.2444444444444445,0.04964462530260228
1.2472222222222222,0.07188762227968956
1.25,0.04432075235745438
1.2527777777777778,0.051914421266903835
1.2555555555555555,0.04030825149970857
1.2583333333333333,0.021045995723009157
1.261111111111111,0.041089282795175305
1.2638888888888888,0.05287162446384483
1.2666666666666666,0.03122899676877375
1.2694444444444446,0.06840146649829087
1.2722222222222224,0.04977584119001495
1.2750000000000001,0.045735089201893654
1.277777777777778,0.056387382286246845
1.2805555555555557,0.0037112188995551895
1.2833333333333334,0.016343094316284397
1.2861111111111112,0.05906225986166236
1.288888888888889,0.023959558361948935
1.2916666666666667,-0.023430020276593702
1.2944444444444445,0.016758686598301514
1.2972222222222223,0.0006452721255441884
1.3,0.023643972422734125
1.3027777777777778,0.06488926063388456
1.3055555555555556,0.02636393041840454
1.3083333333333333,0.020553952754655793
1.3111111111111111,0.010069400278114538
1.3138888888888889,0.03483180911022032
1.3166666666666667,-0.002876058801089751
1.3194444444444444,-0.015790186856663446
1.3222222222222222,0.04315550348741045
1.325,0.05381341212386831
1.3277777777777777,-0.014080573586394047
1.3305555555555557,-0.0001995911882245044
1.3333333333333335,0.01167310149556585
1.3361111111111112,0.04345465458376535
1.338888888888889,0.0025775026809414896
1.3416666666666668,0.05115846798249289
1.3444444444444446,0.03772633308939623
1.3472222222222223,0.022368305694397194
1.35,0.048633504075862664
1.3527777777777779,0.0646655973396557
1.3555555555555556,0.02891921228245658
1.3583333333333334,0.05392613782015558
1.3611111111111112,0.019082709404076872
1.363888888888889,0.012858467452632392
1.3666666666666667,0.04443602744919686
1.3694444444444445,0.04355214080312696
1.3722222222222222,0.06468134525022844
1.375,0.05224102321389684
1.3777777777777778,0.04383740307361823
1.3805555555555555,0.051297169189525205
1.3833333333333333,0.03796230882103066
1.386111111111111,0.038482220336276116
1.3888888888888888,0.033032001164497365
1.3916666666666668,0.02749994900307005
1.3944444444444446,0.014786349252637549
1.3972222222222224,0.00958863195287456
1.4000000000000001,0.004618857288722054
1.402777777777778,-0.0423333813426259
1.4055555555555557,0.05103022917513987
1.4083333333333334,-0.04606989575110436
1.4111111111111112,-0.01988141443888552
1.413888888888889,0.03421497757807781
1.4166666666666667,0.02744817972303841
1.4194444444444445,0.00038007717339283084
1.4222222222222223,0.015422175028050981
1.425,-0.01733796585954136
1.4277777777777778,0.022394624945757995
1.4305555555555556,0.032996478671458454
1.4333333333333333,0.0035375779786843593
1.4361111111111111,0.011296228567674904
1.4388888888888889,-0.015261215439011943
1.4416666666666667,-0.013665380713646126
1.4444444444444444,0.03516786574596606
1.4472222222222222,0.015616623798952376
1.45,0.016199913886796233
1.4527777777777777,0.00839498858648488
1.4555555555555557,-0.005040006288988257
1.4583333333333335,0.05513369555710901
1.4611111111111112,-0.012921799011934736
1.463888888888889,0.0013911085671531667
1.4666666666666668,-0.01851587535875814
1.4694444444444446,0.031994869686454666
1.4722222222222223,0.013631145231689129
1.475,0.008999706698050473
1.4777777777777779,0.07062325276794086
1.4805555555555556,-0.009742286028516994
1.4833333333333334,-0.006435313703880504
1.4861111111111112,0.024278931079655668
1.488888888888889,0.07088878123564532
1.4916666666666667,0.016451305321618
1.4944444444444445,-0.007462556607616171
1.4972222222222222,0.054545738439927036
1.5,0.07703902821497147
1.5027777777777778,0.013251620352002984
1.5055555555555555,0.016387597898161008
1.5083333333333333,0.04681866157249411
1.511111111111111,0.037552015386151535
1.5138888888888888,0.013360650031499829
1.5166666666666668,0.05571615533701381
1.5194444444444446,0.02491480116986734
1.5222222222222224,0.06481789126633743
1.5250000000000001,0.07718902691972004
1.527777777777778,0.04817471075618582
1.5305555555555557,0.12016464011956442
1.5333333333333334,0.06539008887698133
1.5361111111111112,0.19006086422394802
1.538888888888889,0.06461667181314006
1.5416666666666667,0.11921652238264684
1.5444444444444445,0.1606406130566627
1.5472222222222223,0.1563198124394882
1.55,0.14381092854833283
1.5527777777777778,0.16681932197573068
1.5555555555555556,0.15253877331491902
1.5583333333333333,0.19108352750942903
1.5611111111111111,0.1616887710038212
1.5638888888888889,0.16860270864327628
1.5666666666666667,0.14250500176501596
1.5694444444444444,0.20045034540843804
1.5722222222222222,0.12917707430434658
1.575,0.03737872683263457
1.577777777777778,0.12085632542441514
1.5805555555555557,0.059133915887469066
1.5833333333333335,0.0799643264296763
1.5861111111111112,0.058429868114941816
1.588888888888889,0.062133644970902804
1.5916666666666668,0.0650168426612284
1.5944444444444446,-0.02356918513242024
1.5972222222222223,0.021092790479984004
1.6,0.016659288635968
1.6027777777777779,-0.031841134476129504
1.6055555555555556,0.0015586285586432057
1.6083333333333334,-0.021459386590511248
1.6111111111111112,-0.00023396946360173133
1.613888888888889,0.04821755529887932
1.6166666666666667,0.006148528843320216
1.6194444444444445,-0.013011694701533134
1.6222222222222222,0.0011753496694133399
1.625,-0.0011420718048804354
1.6277777777777778,-0.014617285205519644
1.6305555555555555,-0.014510704139667142
1.6333333333333333,0.033152182461251095
1.636111111111111,-0.059501719756597245
1.638888888888889,-0.1403723765257203
1.6416666666666668,-0.16916391800899028
1.6444444444444446,-0.2199768749870363
1.6472222222222224,-0.17562288526441705
1.6500000000000001,-0.22088367576151774
1.652777777777778,-0.09799522249626301
1.6555555555555557,-0.0047007476216468225
1.6583333333333334,-0.001247809934756134
1.6611111111111112,0.5146973045152916
1.663888888888889,0.998333444620478
1.6666666666666667,1.2678437416786332
1.6694444444444445,1.4511487139714336
1.6722222222222223,1.4899916071295611
1.675,1.3135557463989906
1.6777777777777778,0.9329832535168893
1.6805555555555556,0.49659519740559394
1.6833333333333333,0.007081375797444458
1.6861111111111111,-0.13116051265655135
1.6888888888888889,-0.16592804608327505
1.6916666666666667,-0.24777528520868355
1.6944444444444444,-0.31830456178020844
1.6972222222222222,-0.3309865531606985
1.7,-0.27472550817092684
1.702777777777778,-0.26400264489358477
1.7055555555555557,-0.21132761614560233
1.7083333333333335,-0.1260279777774485
1.7111111111111112,-0.05641970219261435
1.713888888888889,-0.000643924784641032
1.7166666666666668,-0.04444235174154006
1.7194444444444446,0.01612623171463711
1.7222222222222223,0.02778439066466449
1.725,-0.03827486584031948
1.7277777777777779,-0.023410941242333613
1.7305555555555556,-0.038427198444514546
1.7333333333333334,0.062151278405412416
1.7361111111111112,0.041115170289250304
1.738888888888889,-0.04036700089548658
1.7416666666666667,0.0041224519924389115
1.7444444444444445,-0.03337523503499858
1.7472222222222222,-0.03694904646303605
1.75,-0.0435093063763612
1.7527777777777778,-0.025296038113500542
1.7555555555555555,0.05940218634240575
1.7583333333333333,0.0333704348407418
1.761111111111111,0.050179465935952565
1.763888888888889,0.072165490448036
1.7666666666666668,0.05639676711556745
1.7694444444444446,0.09646919050073124
1.7722222222222224,0.1450332723051599
1.7750000000000001,0.1006559610648346
1.777777777777778,0.10161720915297488
1.7805555555555557,0.16259837150136167
1.7833333333333334,0.21005597604716914
1.7861111111111112,0.21933178289642405
1.788888888888889,0.22162465577043539
1.7916666666666667,0.22331587868989677
1.7944444444444445,0.22621076395670195
1.7972222222222223,0.2524712044340667
1.8,0.20579324980095878
1.8027777777777778,0.23085176184706924
1.8055555555555556,0.261509447758109
1.8083333333333333,0.2775793769693484
1.8111111111111111,0.2816623805945997
1.8138888888888889,0.2827018098437854
1.8166666666666667,0.25834273398262375
1.8194444444444444,0.2715700855484068
1.8222222222222222,0.3373904145771859
1.8250000000000002,0.3087083407330884
1.827777777777778,0.24571969869446164
1.8305555555555557,0.25215787244685545
1.8333333333333335,0.2519211801153165
1.8361111111111112,0.30769255618227664
1.838888888888889,0.2890979881681639
1.8416666666666668,0.2705933233848131
1.8444444444444446,0.22117540278294506
1.8472222222222223,0.2784364622466443
1.85,0.21556943081226307
1.8527777777777779,0.24543870731428158
1.8555555555555556,0.2492011799677496
1.8583333333333334,0.24105256333405928
1.8611111111111112,0.20777697633784425
1.863888888888889,0.2499559100468951
1.8666666666666667,0.14129442844164924
1.8694444444444445,0.1984494502916035
1.8722222222222222,0.24372167108264778
1.875,0.09812658555373682
1.8777777777777778,0.13094556993634845
1.8805555555555555,0.16032044287554076
1.8833333333333333,0.15258089568284158
1.8861111111111113,0.11180294281575066
1.888888888888889,0.10006165504608601
1.8916666666666668,0.0637257345859966
1.8944444444444446,0.07610633443333022
1.8972222222222224,0.012079697966475268
1.9000000000000001,0.05655716559686973
1.902777777777778,-0.0072996384393582
1.9055555555555557,0.0025032409496536356
1.9083333333333334,0.037641727510436464
1.9111111111111112,-0.0759155527658579
1.913888888888889,-0.03685789249172808
1.9166666666666667,-0.007747677742945361
1.9194444444444445,-0.045074717609920587
1.9222222222222223,0.003425751875029786
1.925,0.0214525035282935
1.9277777777777778,-0.02116554892955955
1.9305555555555556,0.0005145051788653064
1.9333333333333333,-0.021303704127372668
1.9361111111111111,-0.03184399618156764
1.9388888888888889,-0.007935993547633153
1.9416666666666667,-0.040504935090949504
1.9444444444444444,-0.08336987105127461
1.9472222222222222,-0.04519128463257871
1.9500000000000002,-0.06475382562658566
1.952777777777778,-0.038249286367605856
1.9555555555555557,-0.06626466964936464
1.9583333333333335,-0.04266044452795256
1.9611111111111112,-0.02090813898875508
1.963888888888889,0.004356090714435636
1.9666666666666668,-0.011122346949918122
1.9694444444444446,-0.04832975963759181
1.9722222222222223,-0.008073366565726402
1.975,-0.00629485966434621
1.9777777777777779,-0.06286333721395791
1.9805555555555556,-0.07093385150084396
1.9833333333333334,-0.035906127292557745
1.9861111111111112,0.010020348533339087
1.988888888888889,0.0009801248420741905
1.9916666666666667,-0.03639148749243758
1.9944444444444445,-0.014170529319294065
1.9972222222222222,-0.058941206023520654
2.0,-0.040378737184968136
2.0027777777777778,-0.05295004825732581
2.0055555555555555,-0.05070337938667452
2.0083333333333333,-0.07930182307302158
2.011111111111111,-0.013383968186588758
2.013888888888889,0.007914543448003263
2.0166666666666666,-0.06180663664245527
2.0194444444444444,-0.04226660872800447
2.022222222222222,-0.025002592548625753
2.025,-0.032315514240371726
2.0277777777777777,-0.013637169667095089
2.0305555555555554,-0.02581261779280172
2.033333333333333,-0.004171877097373343
2.036111111111111,-0.06736847653365338
2.0388888888888888,-0.02354880965041077
2.041666666666667,-0.0361625852783283
2.0444444444444447,-0.05843405033299157
2.0472222222222225,-0.020960357895333175
2.0500000000000003,-0.05636813150413049
2.052777777777778,-0.021825642499424584
2.055555555555556,-0.007372343418960075
2.0583333333333336,0.00829148423321937
2.0611111111111113,-0.025457872979469685
2.063888888888889,-0.050648936776134704
2.066666666666667,-0.029529141488171432
2.0694444444444446,-0.0438569117591818
2.0722222222222224,-0.009260527966390413
2.075,0.00033303899387179814
2.077777777777778,-0.06534061808363965
2.0805555555555557,-0.08068622043880508
2.0833333333333335,-0.09620461342259698
2.0861111111111112,-0.07422025127066549
2.088888888888889,-0.11681494085152216
2.091666666666667,-0.021885553578008983
2.0944444444444446,0.035684551118568546
2.0972222222222223,-0.06188353925137957
2.1,-0.027601180303315452
2.102777777777778,-0.019023336358179894
2.1055555555555556,-0.05952175919679721
2.1083333333333334,-0.0023554206257579632
2.111111111111111,-0.07097941201631978
2.113888888888889,-0.06534562984761194
2.1166666666666667,-0.028039080897325167
2.1194444444444445,-0.06213533533881394
2.1222222222222222,0.008820421256145662
2.125,-0.05602847528282527
2.1277777777777778,-0.04376579637219757
2.1305555555555555,-0.07944507907762452
2.1333333333333333,0.02591695890846102
2.136111111111111,-0.01587769441303632
2.138888888888889,-0.017338812981733183
2.1416666666666666,-0.005026081025076193
2.1444444444444444,-0.06976782434199764
2.147222222222222,-0.0776343150733754
2.15,-0.004701388991539365
2.1527777777777777,-0.019851057335551526
2.1555555555555554,-0.03077560104838878
2.158333333333333,-0.009310880201745333
2.161111111111111,-0.05232695607581547
2.1638888888888888,-0.07503492185552627
2.166666666666667,-0.06967618461120567
2.1694444444444447,-0.058678278625413666
2.1722222222222225,-0.03165204632645196
2.1750000000000003,-0.05558858595329067
2.177777777777778,-0.055279346112871414
2.180555555555556,-0.05998616929524473
2.1833333333333336,-0.0774172147748112
2.1861111111111113,-0.0887275332126728
2.188888888888889,-0.07060684307856863
2.191666666666667,-0.015007072124105496
2.1944444444444446,-0.08099891266353337
2.1972222222222224,-0.04573851850384589
2.2,-0.022969476759562006
2.202777777777778,-0.07423718579553357
2.2055555555555557,-0.11848622407491265
2.2083333333333335,0.0338744207649418
2.2111111111111112,-0.029247959994616712
2.213888888888889,-0.07013491247337415
2.216666666666667,-0.05529381558899382
2.2194444444444446,-0.03830052187796723
2.2222222222222223,-0.11130089663389972
2.225,-0.040891037460319114
2.227777777777778,-0.04602744529420004
2.2305555555555556,-0.01923450297162421
2.2333333333333334,-0.03681621899533508
2.236111111111111,-0.04314874931503149
2.238888888888889,-0.02436048013451944
2.2416666666666667,-0.08861004359757846
2.2444444444444445,0.014534838154306937
2.2472222222222222,-0.05333453633715573
2.25,-0.06314846795050263
2.2527777777777778,-0.047423819081435926
2.2555555555555555,-0.04690392600742584
2.2583333333333333,-0.05353262656425925
2.261111111111111,-0.010829711337763864
2.263888888888889,-0.08624183087334569
2.2666666666666666,-0.047156206523139586
2.2694444444444444,-0.050818568236176025
2.272222222222222,-0.033674824873322906
2.275,0.00020362237581839776
2.2777777777777777,-0.04424763935228073
2.2805555555555554,-0.09142265568347856
2.283333333333333,-0.04035552382377094
2.286111111111111,-0.05711084780178535
2.288888888888889,-0.11189043092271453
2.291666666666667,-0.06479493168254077
2.2944444444444447,-0.03255821967027805
2.2972222222222225,0.028386534309824595
2.3000000000000003,-0.008053577822080271
2.302777777777778,-0.05395199985987553
2.305555555555556,-0.045029167158322135
2.3083333333333336,-0.08748242106639735
2.3111111111111113,-0.060469326138883256
2.313888888888889,-0.06091186112039598
2.316666666666667,-0.08723299029382764
2.3194444444444446,-0.044800234438259263
2.3222222222222224,-0.06211995638801222
2.325,-0.032462569044796746
2.327777777777778,-0.034353436647584626
2.3305555555555557,-0.06909821505894008
2.3333333333333335,0.012171952823158548
2.3361111111111112,-0.006094840273796979
2.338888888888889,-0.0391117058315151
2.341666666666667,0.04693772547326175
2.3444444444444446,0.004618179090201699
2.3472222222222223,0.03162791947351903
2.35,0.06783791009315579
2.352777777777778,0.021123949613818208
2.3555555555555556,0.08719852104131459
2.3583333333333334,0.0782778094187566
2.361111111111111,0.14105450487946194
2.363888888888889,0.07451510226416871
2.3666666666666667,0.13220804181734916
2.3694444444444445,0.10429090649021162
2.3722222222222222,0.05419531292100188
2.375,0.13606696240932536
2.3777777777777778,0.10736915409881742
2.3805555555555555,0.08442935356768617
2.3833333333333333,0.1087370390755924
2.386111111111111,0.033529342506746634
2.388888888888889,0.07782429725611381
2.3916666666666666,0.0836901971848639
2.3944444444444444,0.02997055980678293
2.397222222222222,0.044340653406151856
2.4,0.04043872606928235
2.4027777777777777,0.006433195366985437
2.4055555555555554,0.04256368736889945
2.408333333333333,-0.04710040667333245
2.411111111111111,-0.05890337714983134
2.413888888888889,-0.0586221069511877
2.416666666666667,-0.05630539346934443
2.4194444444444447,-0.05334084272505862
2.4222222222222225,-0.08685648856502276
2.4250000000000003,-0.04385718070179203
2.427777777777778,-0.08031158394250754
2.430555555555556,-0.05246237880322306
2.4333333333333336,-0.04167087366825778
2.4361111111111113,-0.026581487374622213
2.438888888888889,-0.07168334905360829
2.441666666666667,-0.039921875499141585
2.4444444444444446,-0.06354183362605546
2.4472222222222224,-0.08133084704678836
2.45,-0.03121278612211411
2.452777777777778,-0.0796724752223002
2.4555555555555557,-0.0851299344484161
2.4583333333333335,-0.21019906669354896
2.4611111111111112,-0.19814581825320557
2.463888888888889,-0.269527494931513
2.466666666666667,-0.2567664120205703
2.4694444444444446,-0.2041480500893866
2.4722222222222223,-0.16977964251397437
2.475,-0.07345057678724883
2.477777777777778,-0.04176416824054523
2.4805555555555556,0.4686107273961934
2.4833333333333334,0.9086220637663627
2.486111111111111,1.226594211870296
2.488888888888889,1.384666263041244
2.4916666666666667,1.453158280270081
2.4944444444444445,1.2413754232978982
2.4972222222222222,0.8922393636012491
2.5,0.42922212052297287
2.5027777777777778,-0.047776711713262664
2.5055555555555555,-0.1545167721562999
2.5083333333333333,-0.2460586170797472
2.511111111111111,-0.3632428806680662
2.513888888888889,-0.300691687771499
2.5166666666666666,-0.2899235554291777
2.5194444444444444,-0.32520088331848934
2.522222222222222,-0.2515611134040799
2.525,-0.20688156009769507
2.5277777777777777,-0.1538333471751694
2.5305555555555554,-0.022239719288327228
2.533333333333333,-0.08329621406778769
2.5361111111111114,-0.04185824232506203
2.538888888888889,-0.12112850698278674
2.541666666666667,-0.014162435215512012
2.5444444444444447,-0.07410835863644155
2.5472222222222225,-0.0590160750274868
2.5500000000000003,-0.052294622246957856
2.552777777777778,-0.06599631031219017
2.555555555555556,0.0007009611761035414
2.5583333333333336,-0.06417409979291672
2.5611111111111113,-0.04491860609713155
2.563888888888889,-0.01446088210673694
2.566666666666667,-0.05647287822870886
2.5694444444444446,0.044891301884196703
2.5722222222222224,-0.023095328358435377
2.575,-0.046158643328436916
2.577777777777778,0.024942999204477803
2.5805555555555557,0.008403963204202721
2.5833333333333335,0.04056586475658848
2.5861111111111112,0.05680012582977854
2.588888888888889,0.0818716604526863
2.591666666666667,0.07653815309000545
2.5944444444444446,0.10561016045500249
2.5972222222222223,0.11429896485493418
2.6,0.12330162174516726
2.602777777777778,0.12589899475882063
2.6055555555555556,0.14769413457820993
2.6083333333333334,0.16574595655098437
2.611111111111111,0.1536318466633036
2.613888888888889,0.2089297239937114
2.6166666666666667,0.143315411856803
2.6194444444444445,0.20782743726768807
2.6222222222222222,0.24816359581188174
2.625,0.20745357057270045
2.6277777777777778,0.23946257145407307
2.6305555555555555,0.2863328269345971
2.6333333333333333,0.2042834335099318
2.636111111111111,0.2643723398543742
2.638888888888889,0.2316688156861566
2.6416666666666666,0.25325925414025374
2.6444444444444444,0.2839633300995407
2.647222222222222,0.26327052221936026
2.65,0.24871233319225192
2.6527777777777777,0.22777967465492924
2.6555555555555554,0.2596939179177234
2.658333333333333,0.2642317348467372
2.6611111111111114,0.22060330521579674
2.663888888888889,0.2249339938820825
2.666666666666667,0.22977660170549852
2.6694444444444447,0.22141110086567017
2.6722222222222225,0.17922042932126453
2.6750000000000003,0.2237787096703471
2.677777777777778,0.19508585724231098
2.680555555555556,0.2571402576139919
2.6833333333333336,0.26308200709598273
2.6861111111111113,0.1363514725653476
2.688888888888889,0.18670693957899787
2.691666666666667,0.14255688350262447
2.6944444444444446,0.1479545121375966
2.6972222222222224,0.12654729921683186
2.7,0.11722693687994352
2.702777777777778,0.11373768410131237
2.7055555555555557,0.10206011189340738
2.7083333333333335,0.10671858544130322
2.7111111111111112,0.054764331459009094
2.713888888888889,0.07443788569824722
2.716666666666667,0.04664995621736247
2.7194444444444446,-0.03381565056675297
2.7222222222222223,0.007128981311953556
2.725,0.0018295259581918386
2.727777777777778,-0.06240447896704651
2.7305555555555556,-0.060559064941948265
2.7333333333333334,-0.041306534196048565
2.736111111111111,-0.03219197215380766
2.738888888888889,-0.03009677875720407
2.7416666666666667,-0.04043979307952251
2.7444444444444445,-0.08310120702755291
2.7472222222222222,-0.0020013674488110478
2.75,0.008809753997550823
2.7527777777777778,0.0027223775461682406
2.7555555555555555,-0.061789240728883844
2.7583333333333333,-0.09403419286912332
2.761111111111111,-0.024685263749175963
2.763888888888889,-0.054239586040822976
2.7666666666666666,-0.07423207533976892
2.7694444444444444,-0.06016503664823834
2.772222222222222,-0.08577865333382131
2.775,-0.014615763523571062
2.7777777777777777,-0.05191070878490618
2.7805555555555554,-0.013954151951491817
2.7833333333333337,-0.05295588565425328
2.7861111111111114,0.00837111926990948
2.788888888888889,-0.1182257512217241
2.791666666666667,-0.03424400609730052
2.7944444444444447,0.012122282991342402
2.7972222222222225,-0.05127790316940507
2.8000000000000003,-0.10807063580833082
2.802777777777778,-0.06168667942295464
2.805555555555556,-0.08941182180814408
2.8083333333333336,-0.05578287670376413
2.8111111111111113,-0.04729752839285285
2.813888888888889,-0.019926510992785848
2.816666666666667,-0.03658409928335273
2.8194444444444446,-0.04804031724438505
2.8222222222222224,0.021110594396113153
2.825,-0.0024341829642203633
2.827777777777778,-0.015703847945412814
2.8305555555555557,-0.08154788399813916
2.8333333333333335,-0.07806274763805435
2.8361111111111112,-0.0474117101083792
2.838888888888889,-0.04013507286439023
2.841666666666667,-0.03871371759458842
2.8444444444444446,-0.04810223650903521
2.8472222222222223,-0.0314464503630356
2.85,-0.07850084732529172
2.852777777777778,-0.10331117164352158
2.8555555555555556,-0.05486909349979898
2.8583333333333334,-0.04138800764988121
2.861111111111111,-0.054386682827834425
2.863888888888889,-0.06656479807637765
2.8666666666666667,-0.026710456245456725
2.8694444444444445,-0.017725951117732817
2.8722222222222222,-0.03788599411878558
2.875,-0.06898936677782788
2.8777777777777778,-0.0013946280002548397
2.8805555555555555,0.0025408943804779774
2.8833333333333333,-0.054438544342538794
2.886111111111111,-0.05776714720506437
2.888888888888889,-0.0466875415036567
2.8916666666666666,-0.06958146872164264
2.8944444444444444,-0.0036669261268979514
2.897222222222222,-0.02436484587172801
2.9,-0.0650424285084374
2.9027777777777777,-0.04509623786244747
2.9055555555555554,-0.012866072173990297
2.9083333333333337,-0.08287446902630463
2.9111111111111114,-0.021759781058384338
2.913888888888889,-0.051021255289262615
2.916666666666667,-0.06125564031384083
2.9194444444444447,-0.002367582288712221
2.9222222222222225,-0.02349987902374681
2.9250000000000003,-0.06176685790154933
2.927777777777778,-0.021808094796652813
2.930555555555556,-0.03551167584265267
2.9333333333333336,-0.013225372105380918
2.9361111111111113,-0.07311934519318576
2.938888888888889,-0.07011147690453651
2.941666666666667,-0.032976416396337714
2.9444444444444446,-0.016171079217712683
2.9472222222222224,0.03895720268953442
2.95,-0.02668809446746057
2.952777777777778,-0.010677948199857196
2.9555555555555557,-0.05021994881459884
2.9583333333333335,-0.055677004326860124
2.9611111111111112,0.016650415322377335
2.963888888888889,-0.004526405088502248
2.966666666666667,-0.054320172095427874
2.9694444444444446,-0.04268293491731173
2.9722222222222223,-0.040723700179061684
2.975,-0.03748852294846457
2.977777777777778,-0.030260304763086603
2.9805555555555556,-0.0701956793471373
2.9833333333333334,-0.04859734722055485
2.986111111111111,-0.10060464520331938
2.988888888888889,-0.04315733246045439
2.9916666666666667,-0.005588218591288604
2.9944444444444445,-0.03035165761331119
2.9972222222222222,-0.010215747932416742
3.0,-0.0338640415862404
3.0027777777777778,-0.038344072304254136
3.0055555555555555,-0.01168098941516213
3.0083333333333333,-0.01088769917559074
3.011111111111111,-0.059008164780625615
3.013888888888889,0.011722795625843711
3.0166666666666666,-0.00343864751968238
3.0194444444444444,-0.007975035908010498
3.022222222222222,-0.029635424572104583
3.025,-0.0010294933694448317
3.0277777777777777,-0.02526583764542193
3.030555555555556,-0.05597679995570609
3.0333333333333337,-0.020352915610190238
3.0361111111111114,-0.03957262159931204
3.038888888888889,-0.043933671174501254
3.041666666666667,-0.061761213999053065
3.0444444444444447,-0.0031204994819233264
3.0472222222222225,-0.05235729200900456
3.0500000000000003,-0.06394081881574465
3.052777777777778,-0.01674893730134678
3.055555555555556,-0.009091506768152402
3.0583333333333336,-0.036372025589958834
3.0611111111111113,0.056314796169478515
3.063888888888889,-0.006288375416767116
3.066666666666667,-0.030851841513905336
3.0694444444444446,-0.08233649090799447
3.0722222222222224,-0.0050079189287274735
3.075,-0.027578346783645857
3.077777777777778,-0.007053869255605361
3.0805555555555557,0.012441550798077915
3.0833333333333335,-0.008409104572251054
3.0861111111111112,-0.011134762468738676
3.088888888888889,-0.015361173154173617
3.091666666666667,-0.007891668059290995
3.0944444444444446,-0.0392868798030548
3.0972222222222223,-0.03648350584194823
3.1,-0.0003439931800346234
3.102777777777778,0.007323688618213833
3.1055555555555556,0.012618415582387719
3.1083333333333334,-0.06323722675285917
3.111111111111111,-0.046716971895766554
3.113888888888889,-0.01092940929433838
3.1166666666666667,-0.018929181319441834
3.1194444444444445,-0.026912310840961552
3.1222222222222222,-0.027898186427638312
3.125,-0.037626378386856965
3.1277777777777778,-0.04504981851725053
3.1305555555555555,-0.012355002586237018
3.1333333333333333,-0.05199462177241383
3.136111111111111,0.018251202151537044
3.138888888888889,0.004974066290097369
3.1416666666666666,-0.03246893273196555
3.1444444444444444,-0.015534790737156919
3.147222222222222,-0.02047778257664052
3.15,-0.00980424052253743
3.1527777777777777,-0.024159998331395066
3.155555555555556,-0.030525697802239973
3.1583333333333337,-0.021414986183801086
3.1611111111111114,-0.018235063072244807
3.163888888888889,-0.0014271746040313196
3.166666666666667,-0.03444700686987096
3.1694444444444447,0.033010061687459805
3.1722222222222225,0.06358597571596622
3.1750000000000003,-0.0047659818231070294
3.177777777777778,0.017247501653958046
3.180555555555556,0.10954481538605337
3.1833333333333336,0.10048381826635812
3.1861111111111113,0.13059057560288218
3.188888888888889,0.1289375693883164
3.191666666666667,0.0913432990746648
3.1944444444444446,0.1614801226206252
3.1972222222222224,0.14886767972999726
3.2,0.1715507229236821
3.202777777777778,0.15521510826517865
3.2055555555555557,0.14531901724684979
3.2083333333333335,0.13600622140673263
3.2111111111111112,0.09907365437576547
3.213888888888889,0.12976561039945653
3.216666666666667,0.0765148023858997
3.2194444444444446,0.2061480365222542
3.2222222222222223,0.11540921005689755
3.225,0.032123498218210304
3.227777777777778,0.04052496101720406
3.2305555555555556,0.07537785960600223
3.2333333333333334,0.08577921894101201
3.236111111111111,-0.015277777008495697
3.238888888888889,0.009175031220206332
3.2416666666666667,-0.006774190653760448
3.2444444444444445,-0.021056929967188907
3.2472222222222222,-0.04013283274983723
3.25,-0.008663858448111085
3.2527777777777778,0.01788657122672669
3.2555555555555555,-0.020882872263304434
3.2583333333333333,-0.01565081024028315
3.261111111111111,0.06330003982558349
3.263888888888889,-0.02625885935346304
3.2666666666666666,0.017450118345893304
3.2694444444444444,-0.03450829637091506
3.272222222222222,-0.015390711439684264
3.275,-0.008010944233700815
3.277777777777778,-0.06470058189678934
3.280555555555556,-0.011135929083282481
3.2833333333333337,-0.04457338778033601
3.2861111111111114,-0.04860085558835328
3.288888888888889,-0.18767703847211897
3.291666666666667,-0.17088739110448045
3.2944444444444447,-0.18652620403334383
3.2972222222222225,-0.19913512196771962
3.3000000000000003,-0.18497967792895212
3.302777777777778,-0.09765516410792757
3.305555555555556,-0.090518914405091
3.3083333333333336,-0.024614308534983097
3.3111111111111113,0.4641489511058803
3.313888888888889,0.9267186651864905
3.316666666666667,1.2643100879995044
3.3194444444444446,1.4889593678928636
3.3222222222222224,1.5449443064869381
3.325,1.3171371290219502
3.327777777777778,0.9760304339489393
3.3305555555555557,0.5044760537090024
3.3333333333333335,0.021447054713711097
3.3361111111111112,-0.10886576038639464
3.338888888888889,-0.18172189422107815
3.341666666666667,-0.2275406408725672
3.3444444444444446,-0.32271294758743146
3.3472222222222223,-0.30134435199109394
3.35,-0.23515823506814124
3.352777777777778,-0.19653518098664913
3.3555555555555556,-0.14938332260170675
3.3583333333333334,-0.0598566154645859
3.361111111111111,-0.0061570849543111025
3.363888888888889,-0.02414375511096151
3.3666666666666667,0.018970316939881878
3.3694444444444445,-0.014664659772774594
3.3722222222222222,0.056418714578412285
3.375,0.030880383284145333
3.3777777777777778,-0.015776807121406326
3.3805555555555555,0.0022651793911176634
3.3833333333333333,0.015262304346570055
3.386111111111111,0.01496679359328789
3.388888888888889,0.05277724081376904
3.3916666666666666,0.007855487845856792
3.3944444444444444,0.005500570619773119
3.397222222222222,0.023803538427857613
3.4,0.03820141480485581
3.402777777777778,-0.017231913411418807
3.405555555555556,0.04428802240550264
3.4083333333333337,0.084372395958946
3.4111111111111114,0.11208664372054576
3.413888888888889,0.10285064014289977
3.416666666666667,0.09508768781157706
3.4194444444444447,0.08772581225821736
3.4222222222222225,0.1394116811288966
3.4250000000000003,0.17557139899879431
3.427777777777778,0.2002127366572769
3.430555555555556,0.16874055854344708
3.4333333333333336,0.17486591783190072
3.4361111111111113,0.20892630328932485
3.438888888888889,0.22650616790339584
3.441666666666667,0.20073898960535452
3.4444444444444446,0.23469139719127874
3.4472222222222224,0.2950841552287511
3.45,0.2670358470432903
3.452777777777778,0.3386687056132052
3.4555555555555557,0.3332197067046151
3.4583333333333335,0.2628709042508471
3.4611111111111112,0.26301205220468044
3.463888888888889,0.2958563915122546
3.466666666666667,0.29900643118997833
3.4694444444444446,0.3119647923151271
3.4722222222222223,0.2856439970921139
3.475,0.3083599747383118
3.477777777777778,0.34142884773685533
3.4805555555555556,0.3342333030436391
3.4833333333333334,0.3211878446665767
3.486111111111111,0.2866910827720207
3.488888888888889,0.28609625087670953
3.4916666666666667,0.3269025094250228
3.4944444444444445,0.29975430236987066
3.4972222222222222,0.29860254555669463
3.5,0.27121938377408794
3.5027777777777778,0.28775955555852273
3.5055555555555555,0.31256584791558784
3.5083333333333333,0.29146097979934643
3.511111111111111,0.28018700165654
3.513888888888889,0.26387987724501716
3.5166666666666666,0.23305073304373633
3.5194444444444444,0.2870699658522191
3.522222222222222,0.29040856259997855
3.5250000000000004,0.2245061445267666
3.527777777777778,0.22841422792610355
3.530555555555556,0.1982743094459424
3.5333333333333337,0.19641547657244163
3.5361111111111114,0.15326803481778684
3.538888888888889,0.09870978266089933
3.541666666666667,0.11394192430439734
3.5444444444444447,0.13624665610960537
3.5472222222222225,0.0902351169649796
3.5500000000000003,0.09970535210091648
3.552777777777778,0.09140838081931191
3.555555555555556,0.13740106753645884
3.5583333333333336,0.06434337495559977
3.5611111111111113,0.027214676934371268
3.563888888888889,-0.010276187100296826
3.566666666666667,0.05302591201943556
3.5694444444444446,0.02123511642788216
3.5722222222222224,0.016568144267146444
3.575,0.051051095933795296
3.577777777777778,0.022414488446120456
3.5805555555555557,0.030960914294392232
3.5833333333333335,-0.009908167187361254
3.5861111111111112,0.046532416689443176
3.588888888888889,-0.09963106000184249
3.591666666666667,0.014176487975790466
3.5944444444444446,0.017126789430395188
3.5972222222222223,-0.006072917922203588
3.6,0.0017898192798733586
3.602777777777778,0.01090278301682617
3.6055555555555556,0.009752997109522854
3.6083333333333334,0.08942326569144775
3.611111111111111,0.0014005105853789994
3.613888888888889,0.0006743095358622761
3.6166666666666667,0.03220158335189384
3.6194444444444445,0.030880234698736696
3.6222222222222222,0.018228820245122786
3.625,0.1012711260898015
3.6277777777777778,0.04408281778489588
3.6305555555555555,0.008559119307345806
3.6333333333333333,0.022991090782947424
3.636111111111111,0.039400498556592285
3.638888888888889,0.026018162976456975
3.6416666666666666,0.045732071817035716
3.6444444444444444,0.03659823806198311
3.647222222222222,-0.00532778047080849
3.6500000000000004,-0.005378156554404871
3.652777777777778,0.034759124849690404
3.655555555555556,0.0023661205629318185
3.6583333333333337,0.01998558834566158
3.6611111111111114,0.01472091658174205
3.663888888888889,0.05441638405841606
3.666666666666667,-0.010489747928626465
3.6694444444444447,0.011119529937759363
3.6722222222222225,0.035718597021136736
3.6750000000000003,0.046875826246592436
3.677777777777778,0.040587816380849566
3.680555555555556,0.05130521545624228
3.6833333333333336,0.05524889549816547
3.6861111111111113,-0.022765289624970476
3.688888888888889,0.07967301236701191
3.691666666666667,0.04089717067713398
3.6944444444444446,0.04677088452633557
3.6972222222222224,0.02565436948711816
3.7,0.08204793155121781
3.702777777777778,0.10401965324883457
3.7055555555555557,0.07465492758650968
3.7083333333333335,-0.004361327732533574
3.7111111111111112,-0.011902494516450784
3.713888888888889,0.08454714202018772
3.716666666666667,0.04149063917443563
3.7194444444444446,0.053596132664169155
3.7222222222222223,0.04858834097776345
3.725,0.01771165399017361
3.727777777777778,0.0052073793288751336
3.7305555555555556,0.044242379654445455
3.7333333333333334,0.03411666588529671
3.736111111111111,0.030032461412530777
3.738888888888889,0.0775270488958007
3.7416666666666667,0.05710774601111948
3.7444444444444445,0.0038138317405574766
3.7472222222222222,0.03419156460126519
3.75,0.03158559473388983
3.7527777777777778,0.06132363741642902
3.7555555555555555,0.03042109549142088
3.7583333333333333,0.03701127451336153
3.761111111111111,0.00448561301043901
3.763888888888889,0.05810687077957198
3.7666666666666666,0.03750757210831656
3.7694444444444444,0.04659059975395751
3.7722222222222226,0.014839208280359714
3.7750000000000004,0.0015322995093560166
3.777777777777778,0.04107364942123518
3.780555555555556,0.028587268441946388
3.7833333333333337,0.007769138035477727
3.7861111111111114,0.010914295761852537
3.788888888888889,0.07456229169675493
3.791666666666667,0.02232153943165627
3.7944444444444447,0.02365134323317824
3.7972222222222225,0.012955993965605338
3.8000000000000003,-0.015683412689794535
3.802777777777778,0.024520173336748996
3.805555555555556,0.03083407097685103
3.8083333333333336,0.030499425540619365
3.8111111111111113,0.0744894495988786
3.813888888888889,-0.0028754942862751903
3.816666666666667,0.01913876858225244
3.8194444444444446,-0.011185558289401404
3.8222222222222224,0.060197907566702874
3.825,0.049347471431794826
3.827777777777778,0.019165759218723807
3.8305555555555557,0.06777539186923509
3.8333333333333335,0.008956164941790211
3.8361111111111112,0.01593767832616087
3.838888888888889,0.06491752467141754
3.841666666666667,0.06044174885246219
3.8444444444444446,0.07136100359489653
3.8472222222222223,0.056960666749930194
3.85,0.09308070568641924
3.852777777777778,0.07743266502748519
3.8555555555555556,0.056958173356715845
3.8583333333333334,0.08487902457461893
3.861111111111111,0.03508117584341136
3.863888888888889,0.04049804071530902
3.8666666666666667,0.06557283629203232
3.8694444444444445,-0.004624327317756416
3.8722222222222222,0.07507178500045608
3.875,0.11170173165531719
3.8777777777777778,0.021196554556871222
3.8805555555555555,0.004056831050979363
3.8833333333333333,0.05810544817326006
3.886111111111111,0.06765493849471826
3.888888888888889,0.08065398564564814
3.8916666666666666,0.011627786996488518
3.8944444444444444,0.03819238084923507
3.8972222222222226,0.06543944269004959
3.9000000000000004,0.024966078777116246
3.902777777777778,0.03993591919612294
3.905555555555556,0.020792903130258715
3.9083333333333337,0.032628230860307084
3.9111111111111114,0.05469058510190433
3.913888888888889,0.028201382520383955
3.916666666666667,0.0027015499049630257
3.9194444444444447,0.04575471700346733
3.9222222222222225,0.005126164286478427
3.9250000000000003,0.08900481795289282
3.927777777777778,0.03995878065445621
3.930555555555556,0.042377227744727915
3.9333333333333336,0.07782879380528142
3.9361111111111113,0.06118191511420376
3.938888888888889,0.0867737692866663
3.941666666666667,0.04601597645405376
3.9444444444444446,0.03990305184144096
3.9472222222222224,0.040649996470600434
3.95,0.044148329836734695
3.952777777777778,-0.020280085209811123
3.9555555555555557,0.008136946962785468
3.9583333333333335,0.06115618294653113
3.9611111111111112,0.06852851788342437
3.963888888888889,0.07265508231391314
3.966666666666667,0.03458639786141467
3.9694444444444446,0.029830890989992483
3.9722222222222223,0.05710183134923498
3.975,0.005600872478592728
3.977777777777778,0.025172546234749238
3.9805555555555556,0.024248815445582453
3.9833333333333334,0.06422903116070428
3.986111111111111,0.043843886805511684
3.988888888888889,0.07765153016448118
3.9916666666666667,0.08645386631966312
3.9944444444444445,0.09336464715617081
3.9972222222222222,0.14489048097605026
4.0,0.14629037225136576
4.002777777777778,0.14026756147954617
4.0055555555555555,0.15367787766382204
4.008333333333334,0.16154853032675912
4.011111111111111,0.11934887470164848
4.013888888888889,0.17956046847159288
4.016666666666667,0.17666146489573648
4.019444444444445,0.1986010744049921
4.022222222222222,0.1708803413836367
4.025,0.1962179110287093
4.027777777777778,0.19310772198874487
4.030555555555556,0.17353776621771838
4.033333333333333,0.20293543781065274
4.036111111111111,0.20728544834683024
4.038888888888889,0.21029358804808496
4.041666666666667,0.16666756293830842
4.044444444444444,0.20235644603061528
4.0472222222222225,0.13918023697679074
4.05,0.1142229253303909
4.052777777777778,0.07207174721101145
4.055555555555555,0.07446719097453439
4.058333333333334,0.05407282081219579
4.061111111111111,0.03177080906959309
4.063888888888889,-0.006502565132109235
4.066666666666666,0.03316038289735538
4.069444444444445,0.036068523823784025
4.072222222222222,0.04106381165391994
4.075,0.0770221301182516
4.0777777777777775,0.051119548764661134
4.080555555555556,0.07096663698326547
4.083333333333334,0.04333133681638572
4.086111111111111,0.07385879538473572
4.0888888888888895,0.10903371082696077
4.091666666666667,0.04574800734209805
4.094444444444445,0.02929962163354604
4.097222222222222,0.03776978472578126
4.1000000000000005,0.0669972151871513
4.102777777777778,0.04925450770290409
4.105555555555556,-0.028940115872039172
4.108333333333333,-0.12388401327160692
4.111111111111112,-0.11189545288298056
4.113888888888889,-0.1363201680711546
4.116666666666667,-0.13955031772449872
4.1194444444444445,-0.11340334681405398
4.122222222222223,-0.12746899226519598
4.125,-0.03633957279678682
4.127777777777778,0.05732191564342377
4.1305555555555555,0.5913534708936131
4.133333333333334,0.9617555863289932
4.136111111111111,1.3303289978972026
4.138888888888889,1.4988974168368492
4.141666666666667,1.5198125711007868
4.144444444444445,1.3511502714454757
4.147222222222222,1.0221060230277155
4.15,0.5289642197239809
4.152777777777778,0.09835573615039506
4.155555555555556,-0.09625584951729968
4.158333333333333,-0.14684382912997343
4.161111111111111,-0.15107212117671476
4.163888888888889,-0.27256985343553886
4.166666666666667,-0.28977403349205677
4.169444444444444,-0.2816730727730684
4.1722222222222225,-0.22220241425691606
4.175,-0.14657786562335812
4.177777777777778,-0.019276738106458132
4.180555555555555,0.016078286320578734
4.183333333333334,0.026161222014061243
4.186111111111111,0.04990050949127232
4.188888888888889,0.027230319150329228
4.191666666666666,0.02917750672767478
4.194444444444445,0.03980789582428941
4.197222222222222,0.0036014280704008486
4.2,0.06348658105123431
4.2027777777777775,0.1194167875320577
4.205555555555556,0.07301097739842932
4.208333333333334,0.08223741567310668
4.211111111111111,0.01575852273458906
4.2138888888888895,0.04512200348369088
4.216666666666667,0.062417997887696156
4.219444444444445,0.034530319179985544
4.222222222222222,0.08501567741624642
4.2250000000000005,0.06942116123536092
4.227777777777778,0.04166538596811551
4.230555555555556,0.1295429533233178
4.233333333333333,0.1592461752892539
4.236111111111112,0.14925825762751246
4.238888888888889,0.1249217837432521
4.241666666666667,0.1209109182181077
4.2444444444444445,0.20249106080522977
4.247222222222223,0.2394086623309083
4.25,0.19899053203229017
4.252777777777778,0.22016694384818225
4.2555555555555555,0.262472828462137
4.258333333333334,0.29539348671389093
4.261111111111111,0.27653575509870065
4.263888888888889,0.29983271941358786
4.266666666666667,0.2955424382267358
4.269444444444445,0.33454805287206674
4.272222222222222,0.25560910700718753
4.275,0.2951559219153207
4.277777777777778,0.33845913963839985
4.280555555555556,0.32728465126855044
4.283333333333333,0.359084619383905
4.286111111111111,0.31174122607807103
4.288888888888889,0.3639407010980149
4.291666666666667,0.36948382195747426
4.294444444444444,0.3904079295033034
4.2972222222222225,0.313534738771858
4.3,0.28937070683536065
4.302777777777778,0.37305238416124054
4.305555555555555,0.3206161262267399
4.308333333333334,0.3363210651402776
4.311111111111111,0.376378085530887
4.313888888888889,0.2949561368843151
4.316666666666666,0.3362049840614284
4.319444444444445,0.25926093578664083
4.322222222222222,0.3203046072578953
4.325,0.39550512660395426
4.3277777777777775,0.32504795136920345
4.330555555555556,0.30445143783207906
4.333333333333334,0.25004618363112807
4.336111111111111,0.3132956461919946
4.3388888888888895,0.27169984307461553
4.341666666666667,0.22897572869538793
4.344444444444445,0.2530189882568048
4.347222222222222,0.2556721942962752
4.3500000000000005,0.2340032644194057
4.352777777777778,0.19697258816848734
4.355555555555556,0.1661633087294362
4.358333333333333,0.17931053208066786
4.361111111111112,0.15220149580700398
4.363888888888889,0.13602436952621264
4.366666666666667,0.15325383660321457
4.3694444444444445,0.07436291426415917
4.372222222222223,0.09797007729903691
4.375,0.03853436436699763
4.377777777777778,0.04291500699928963
4.3805555555555555,0.06743888878169682
4.383333333333334,0.03776677616134588
4.386111111111111,0.04757388810770908
4.388888888888889,0.07418579438890066
4.391666666666667,0.04868671916556351
4.394444444444445,0.013926238489744648
4.397222222222222,0.02156755047186519
4.4,0.03003833040122999
4.402777777777778,0.01769829846609647
4.405555555555556,0.05973187526674948
4.408333333333333,0.04063768265189648
4.411111111111111,0.017487865906027095
4.413888888888889,0.0717842034951846
4.416666666666667,0.07455944284656285
4.419444444444444,0.06404176101196608
4.4222222222222225,0.061199384593443026
4.425,0.01314584983661769
4.427777777777778,0.03309940746085067
4.430555555555555,0.060138033420802386
4.433333333333334,0.058040832563049094
4.436111111111111,0.042163552366903306
4.438888888888889,-0.004937888658690201
4.441666666666666,0.03409531639393605
4.444444444444445,-0.0025702502823180054
4.447222222222222,0.06780172662554373
4.45,0.05493973322721382
4.452777777777778,0.09778588278669859
4.455555555555556,0.06209155115489765
4.458333333333334,0.05522513344346603
4.461111111111111,-0.0028615940256727784
4.4638888888888895,0.02316163980451696
4.466666666666667,-0.016794617419788015
4.469444444444445,0.03408021927283432
4.472222222222222,0.05105136263925414
4.4750000000000005,0.02816793735806021
4.477777777777778,0.0549348735286573
4.480555555555556,0.018575461445114867
4.483333333333333,0.044066140003016833
4.486111111111112,0.03810425937010106
4.488888888888889,0.03050726551488
4.491666666666667,0.05853770570462824
4.4944444444444445,0.018130257698601573
4.497222222222223,0.01455566287842127
4.5,0.01843394548828865
4.502777777777778,0.006111690621009726
4.5055555555555555,0.08743369984616475
4.508333333333334,0.01330296804142169
4.511111111111111,0.016081938518167024
4.513888888888889,0.04992707527202385
4.516666666666667,0.027735744849538654
4.519444444444445,0.012173840435458012
4.522222222222222,0.01960271117905273
4.525,0.0434075420883781
4.527777777777778,0.026472197289143302
4.530555555555556,0.031832034179166344
4.533333333333333,0.04498274707756116
4.536111111111111,0.06902107714633819
4.538888888888889,0.00867122756987267
4.541666666666667,0.03172017100729052
4.544444444444444,0.03379157221997519
4.5472222222222225,0.01608975030138758
4.55,0.0370573814301306
4.552777777777778,0.05700219508302626
4.555555555555555,-0.002186371337282625
4.558333333333334,0.03634045490927427
4.561111111111111,-0.010807579167621761
4.563888888888889,0.05895989069933946
4.566666666666666,0.10860644533668634
4.569444444444445,0.0427751237613155
4.572222222222222,0.04705346461256703
4.575,0.0892794595102479
4.577777777777778,-0.0019349081253755979
4.580555555555556,0.03987428875964277
4.583333333333334,0.0009502786853388678
4.586111111111111,0.054251236105588685
4.5888888888888895,0.05650061935219794
4.591666666666667,-0.02438892272264242
4.594444444444445,0.013725061328636514
4.597222222222222,0.08017562007649637
4.6000000000000005,0.026743933991430026
4.602777777777778,0.032369778148813
4.605555555555556,0.03726790917807184
4.608333333333333,0.0903510011335863
4.611111111111112,0.021825530602479996
4.613888888888889,0.10721515963114261
4.616666666666667,0.027713450447704215
4.6194444444444445,0.07054667588579346
4.622222222222223,0.01354161762022944
4.625,0.03349553403874927
4.627777777777778,0.04827101197090749
4.6305555555555555,-0.020084540511229272
4.633333333333334,0.050653525897709634
4.636111111111111,-0.005193709872842608
4.638888888888889,-0.0059910616910041625
4.641666666666667,0.015742307745711524
4.644444444444445,0.03567150431506505
4.647222222222222,0.079023195456426
4.65,0.08620530035277194
4.652777777777778,0.04847612535480558
4.655555555555556,0.04099517357545823
4.658333333333333,0.046944074457885204
4.661111111111111,0.010366891026927703
4.663888888888889,0.01188529580788444
4.666666666666667,0.0032422397682907063
4.669444444444444,0.0006313679451863119
4.6722222222222225,-0.004690772964303116
4.675,0.007083773827441638
4.677777777777778,0.020242126303705026
4.680555555555555,0.03442565387412422
4.683333333333334,0.03682822924476335
4.686111111111111,0.023930521771590347
4.688888888888889,0.04614533259088088
4.691666666666666,0.0277402244884987
4.694444444444445,-0.031249688205542615
4.697222222222222,0.03608164599440562
4.7,-0.01996266073483195
4.702777777777778,0.026716558943812568
4.705555555555556,0.050650066947759316
4.708333333333334,-0.01718624736531569
4.711111111111111,-0.021565960579147385
4.7138888888888895,-0.024566300421181672
4.716666666666667,0.05721936256920866
4.719444444444445,0.01693906792393706
4.722222222222222,0.034164141304530146
4.7250000000000005,-0.014765904955476666
4.727777777777778,0.030840133968409244
4.730555555555556,0.049515207954060725
4.733333333333333,-0.006006436066079635
4.736111111111112,-0.004357839922341948
4.738888888888889,0.020060881990171482
4.741666666666667,-0.04236716652733692
4.7444444444444445,0.008779414744299809
4.747222222222223,-0.053623413073488085
4.75,0.01059286404852395
4.752777777777778,0.0016610238942795612
4.7555555555555555,0.001392854431757802
4.758333333333334,0.051267966543033464
4.761111111111111,0.0541744747357572
4.763888888888889,-0.028411503277302456
4.766666666666667,0.05236076465260773
4.769444444444445,-0.02668153017274063
4.772222222222222,0.045070914985494245
4.775,0.027310136174806383
4.777777777777778,0.03143772554865078
4.780555555555556,-0.022331793861696755
4.783333333333333,0.051234624715228855
4.786111111111111,0.005116165296324285
4.788888888888889,0.031592338746899054
4.791666666666667,0.022453439313717478
4.794444444444444,0.01630084763459437
4.7972222222222225,0.032400137900663546
4.8,-0.0670439751732963
4.802777777777778,0.0035099518015855
4.805555555555555,0.0579360628001168
4.808333333333334,0.0031568270395404257
4.811111111111111,-0.033543044542445305
4.813888888888889,0.021576073971956915
4.816666666666666,0.02156091724176408
4.819444444444445,0.04716278905110894
4.822222222222222,0.054607714799520216
4.825,0.0589777175434965
4.827777777777778,0.018476987549133895
4.830555555555556,-0.019330212816771424
4.833333333333334,0.012273057513711386
4.836111111111111,0.0348396696081719
4.8388888888888895,0.07486411158119767
4.841666666666667,0.04021869895960224
4.844444444444445,0.02766366991440728
4.847222222222222,0.04081726154802587
4.8500000000000005,0.05094190988033748
4.852777777777778,0.0781670005102971
4.855555555555556,0.06124370445739867
4.858333333333333,0.060864934000970476
4.861111111111112,0.10934554502791792
4.863888888888889,0.15060305906318655
4.866666666666667,0.16360043686704848
4.8694444444444445,0.14731255045881195
4.872222222222223,0.1572631313849643
4.875,0.16158337260839167
4.877777777777778,0.22322114109321176
4.8805555555555555,0.16241474968552763
4.883333333333334,0.18301475920143895
4.886111111111111,0.1365805991085718
4.888888888888889,0.16882983655363426
4.891666666666667,0.14261232486602327
4.894444444444445,0.08759509865223518
4.897222222222222,0.09569222795409278
4.9,0.14056803778791455
4.902777777777778,0.12069680261902571
4.905555555555556,0.08075452710823344
4.908333333333333,0.09596642283060969
4.911111111111111,0.09408153523898524
4.913888888888889,0.013311277707388068
4.916666666666667,0.05140910661195185
4.919444444444444,-0.012939135536881585
4.9222222222222225,0.0718863721992726
4.925,0.047413044572149746
4.927777777777778,0.062486296705951946
4.930555555555555,0.05987531693989931
4.933333333333334,0.014853616161336429
4.936111111111111,0.031334988302515854
4.938888888888889,-0.015285057421029643
4.941666666666666,0.008500694761844839
4.944444444444445,-0.00450742556524822
4.947222222222223,-0.01226436754629801
4.95,-0.016753975695415292
4.952777777777778,0.02460290987052029
4.955555555555556,0.027256499043049786
4.958333333333334,0.004130188313076399
4.961111111111111,-0.0847326835048472
4.9638888888888895,-0.13277191133442928
4.966666666666667,-0.14049723924448512
4.969444444444445,-0.1390106749592911
4.972222222222222,-0.14977903529892128
4.9750000000000005,-0.13043899643445533
4.977777777777778,-0.09495012742175166
4.980555555555556,-0.11973888458239537
4.983333333333333,0.04016894304549862
4.986111111111112,0.5236401409940733
4.988888888888889,0.956200956718972
4.991666666666667,1.3155768465315039
4.9944444444444445,1.455353472095162
4.997222222222223,1.447473657094218
5.0,1.3455924087335271
5.002777777777778,0.9589834147543215
5.0055555555555555,0.49296644694046554
5.008333333333334,0.020717145513212604
5.011111111111111,-0.13182787549285493
5.013888888888889,-0.18897992312221337
5.016666666666667,-0.26009698473924936
5.019444444444445,-0.2784399172714639
5.022222222222222,-0.3169314640921479
5.025,-0.2629169682713465
5.027777777777778,-0.24047860417526604
5.030555555555556,-0.19990728229477903
5.033333333333333,-0.09065011864934483
5.036111111111111,-0.038339552144583365
5.038888888888889,0.02082077470159175
5.041666666666667,0.0283106301562158
5.044444444444444,0.00850014661829193
5.0472222222222225,-0.018079061485317717
5.05,-0.004114559882720077
5.052777777777778,-0.0412208221791791
5.055555555555555,-0.04306003696750847
5.058333333333334,-0.040415869542018354
5.061111111111111,-0.009569211983653436
5.063888888888889,-0.05677900582818561
5.066666666666666,0.012088568898642954
5.069444444444445,-0.05065309315262735
5.072222222222223,-0.01992319385182506
5.075,-0.04373402885442512
5.077777777777778,0.08033732268788932
5.080555555555556,0.0444892388092546
5.083333333333334,0.049999585774056936
5.086111111111111,0.07077849530885338
5.0888888888888895,0.05661322611752645
5.091666666666667,0.015170459487265253
5.094444444444445,0.1411824994452356
5.097222222222222,0.14559411356681712
5.1000000000000005,0.13831603059420017
5.102777777777778,0.17322870848426586
5.105555555555556,0.13267412040716597
5.108333333333333,0.15517335229804877
5.111111111111112,0.12513111726496076
5.113888888888889,0.15991946142489502
5.116666666666667,0.1613790021915572
5.1194444444444445,0.1905351203687467
5.122222222222223,0.21873122083018154
5.125,0.25321707845263725
5.127777777777778,0.2576133504665126
5.1305555555555555,0.24392572831329049
5.133333333333334,0.25522180545132883
5.136111111111111,0.27952132761261944
5.138888888888889,0.2795392001626685
5.141666666666667,0.3525630269747444
5.144444444444445,0.28515862314533097
5.147222222222222,0.31667206614236987
5.15,0.28119472133370854
5.152777777777778,0.2842184100212808
5.155555555555556,0.3403973236918229
5.158333333333333,0.2706696504428681
5.161111111111111,0.27000172574799347
5.163888888888889,0.26851771660618257
5.166666666666667,0.2547703801616777
5.169444444444444,0.2500773870336023
5.1722222222222225,0.2697483099971569
5.175,0.2776480180999188
5.177777777777778,0.22232385939711163
5.180555555555555,0.23976592611126413
5.183333333333334,0.22032355896003517
5.186111111111111,0.23516856115858104
5.188888888888889,0.27636079965483024
5.191666666666666,0.20392721121716997
5.194444444444445,0.16707219087668954
5.197222222222223,0.21506388983489882
5.2,0.22778321861616582
5.202777777777778,0.1592837102856913
5.205555555555556,0.09830663659921587
5.208333333333334,0.17683995732582528
5.211111111111111,0.09008284508961316
5.2138888888888895,0.11546261063066696
5.216666666666667,0.13826315068122735
5.219444444444445,0.08144150099202219
5.222222222222222,0.06647336914916438
5.2250000000000005,0.023186605351821935
5.227777777777778,0.023948962752201368
5.230555555555556,-6.788879580129671e-05
5.233333333333333,0.07500908065491589
5.236111111111112,0.009072525615027034
5.238888888888889,-0.03007013646386659
5.241666666666667,-0.01454597163986888
5.2444444444444445,-0.049712900801591256
5.247222222222223,0.031401708490955194
5.25,-0.026296610348865202
5.252777777777778,-0.003802909404563553
5.2555555555555555,-0.0015523861041880395
5.258333333333334,-0.008306919293800261
5.261111111111111,-0.002369527569181587
5.263888888888889,-0.041412124017309454
5.266666666666667,-0.037563229934386606
5.269444444444445,0.0077964181539242165
5.272222222222222,0.0011959619469854334
5.275,-0.04458721550823177
5.277777777777778,-0.01985418010785207
5.280555555555556,-0.020325853845840885
5.283333333333333,-0.06635848780583362
5.286111111111111,-0.04656779266222645
5.288888888888889,-0.06858261913685484
5.291666666666667,-0.08047510263574334
5.294444444444444,-0.06581018596885944
5.2972222222222225,-0.014530657317695542
5.3,-0.022536977231447528
5.302777777777778,-0.00922355067179663
5.305555555555555,-0.09855127767395135
5.308333333333334,0.054853104946033765
5.311111111111111,-0.011339007285022865
5.313888888888889,-0.0024129028506016427
5.316666666666666,-0.022896205400279188
5.319444444444445,-0.02592743141702445
5.322222222222223,-0.03655822996405353
5.325,-0.04390586704332142
5.327777777777778,0.009904236506334013
5.330555555555556,-0.03430832583567789
5.333333333333334,-0.00973458740421232
5.336111111111111,-0.016889778748052118
5.3388888888888895,-0.04355453954611441
5.341666666666667,-0.04218726974448825
5.344444444444445,-0.0027123494510873647
5.347222222222222,-0.06834946403888999
5.3500000000000005,-0.03561889116013574
5.352777777777778,-0.003111420003782662
5.355555555555556,-0.03645540844919296
5.358333333333333,-0.007872368040901963
5.361111111111112,-0.03999633537421457
5.363888888888889,-0.06889834447432801
5.366666666666667,-0.08345913080703615
5.3694444444444445,-0.04785758112455088
5.372222222222223,-0.027642965276981398
5.375,-0.0062837208517115516
5.377777777777778,-0.08032627034101478
5.3805555555555555,-0.024461619555566798
5.383333333333334,-0.05550582244837675
5.386111111111111,-0.022870221422089512
5.388888888888889,-0.027767920821845118
5.391666666666667,-0.10542979283216766
5.394444444444445,-0.003289966474611057
5.397222222222222,-0.010722336239531755
5.4,-0.008108307151072816
5.402777777777778,-0.06869224623311854
5.405555555555556,0.01932463049058105
5.408333333333333,-0.06281090497584135
5.411111111111111,-0.04050984710232587
5.413888888888889,-0.08222509656839952
5.416666666666667,0.01610694562530656
5.419444444444444,-0.04793264928719226
5.4222222222222225,-0.03336748132922702
5.425,-0.042574934052380775
5.427777777777778,-0.057575285399474194
5.430555555555555,-0.0174202230507852
5.433333333333334,-0.029450021947137427
5.436111111111111,-0.011492606766802697
5.438888888888889,-0.016629804645141025
5.441666666666667,-0.10246935152161732
5.444444444444445,-0.001025017537259025
5.447222222222223,-0.051423846779231897
5.45,0.009510540466131104
5.452777777777778,-0.030556668172464743
5.455555555555556,-0.0015311165726111658
5.458333333333334,-0.05763397948440245
5.461111111111111,-0.0821301768858641
5.4638888888888895,-0.05636807573916881
5.466666666666667,-0.04334017217423259
5.469444444444445,-0.04341058681163008
5.472222222222222,-0.03603926868031085
5.4750000000000005,-0.02417798838045712
5.477777777777778,-0.00033957524163152897
5.480555555555556,-0.08459416158838999
5.483333333333333,-0.05213084925449188
5.486111111111112,-0.0644873458316919
5.488888888888889,-0.05423711835635118
5.491666666666667,0.022585540654315756
5.4944444444444445,-0.016235959362096417
5.497222222222223,-0.01411582382830625
5.5,-0.038049030170518944
5.502777777777778,-0.05474547292656316
5.5055555555555555,-0.04799986113372504
5.508333333333334,-0.06377571190326684
5.511111111111111,-0.028128193424398363
5.513888888888889,-0.03160427663514695
5.516666666666667,-0.0994084829587091
5.519444444444445,-0.06668415551768342
5.522222222222222,-0.04276916456137963
5.525,-0.08719498928837574
5.527777777777778,-0.04364718040027961
5.530555555555556,-0.0664963529869553
5.533333333333333,-0.01476783693293271
5.536111111111111,-0.034927619129002475
5.538888888888889,-0.04153840159224907
5.541666666666667,-0.10360987451811449
5.544444444444444,-0.08388002496818074
5.5472222222222225,-0.07704009213246112
5.55,-0.033539381971878966
5.552777777777778,-0.02829343644884215
5.555555555555555,-0.03734470473130878
5.558333333333334,-0.04334750022834622
5.561111111111111,-0.116707949119289
5.563888888888889,-0.04571557219667027
5.566666666666667,-0.035467580788829944
5.569444444444445,-0.08860167170215955
5.572222222222223,-0.06961144802371004
5.575,-0.0035309212265483003
5.577777777777778,0.01327874926024341
5.580555555555556,-0.05275596136631866
5.583333333333334,-0.018145809990239566
5.586111111111111,-0.06452616325334225
5.5888888888888895,-0.09755962257327831
5.591666666666667,0.0012996652527657235
5.594444444444445,-0.016943350600167238
5.597222222222222,-0.01833683466212434
5.6000000000000005,-0.0830221116497199
5.602777777777778,-0.060312615373913185
5.605555555555556,-0.06710106985835888
5.608333333333333,-0.06560205099708075
5.611111111111112,-0.06537774349599569
5.613888888888889,-0.047154602296371986
5.616666666666667,-0.0024872583359354314
5.6194444444444445,-0.0008325247767539956
5.622222222222223,-0.04197927133871908
5.625,-0.05346784077238182
5.627777777777778,-0.03376220676895132
5.6305555555555555,-0.07092751273266255
5.633333333333334,-0.03450968164429816
5.636111111111111,-0.04920213715499699
5.638888888888889,0.013821957631774698
5.641666666666667,-0.021853824004153803
5.644444444444445,-0.036731531733573346
5.647222222222222,-0.06113159491075859
5.65,-0.023396982298128092
5.652777777777778,-0.034084089574720165
5.655555555555556,-0.06267433539437672
5.658333333333333,-0.04753205613207896
5.661111111111111,-0.031094149807502844
5.663888888888889,0.004934433340122488
5.666666666666667,-0.06244105846440651
5.669444444444444,-0.022500187269230115
5.6722222222222225,-0.07539560253644534
5.675,-0.03344648153501334
5.677777777777778,-0.012532207333528458
5.680555555555555,-0.06279155253500515
5.683333333333334,-0.0302743401461154
5.686111111111111,-0.023689656893602168
5.688888888888889,0.030238050642540645
5.691666666666667,0.0456859416473393
5.694444444444445,0.05995643122366992
5.697222222222223,0.0904566044727793
5.7,0.08468999430596959
5.702777777777778,0.09526298810197971
5.705555555555556,0.10742287158502287
5.708333333333334,0.09503492677889697
5.711111111111111,0.08440342896295105
5.7138888888888895,0.09294899164651484
5.716666666666667,0.09912468520779961
5.719444444444445,0.077990259207906
5.722222222222222,0.09258811313079664
5.7250000000000005,0.09426792751783575
5.727777777777778,0.06733205364323502
5.730555555555556,0.0785817200787352
5.733333333333333,0.06964739238440829
5.736111111111112,0.03715153028720823
5.738888888888889,-0.012624181257602764
5.741666666666667,0.030730101030722615
5.7444444444444445,0.054073093904867836
5.747222222222223,0.003482171916552636
5.75,-0.04970202695638411
5.752777777777778,-0.009745576967600141
5.7555555555555555,-0.09538015506577512
5.758333333333334,-0.009535078408001739
5.761111111111111,-0.022589637711482532
5.763888888888889,-0.05144417803673417
5.766666666666667,-0.03444376467105362
5.769444444444445,-0.06842925863460594
5.772222222222222,-0.06750440276904703
5.775,-0.012482510202830102
5.777777777777778,-0.039109081279817326
5.780555555555556,-0.056616703177278856
5.783333333333333,-0.01672430156430551
5.786111111111111,-0.03412595285039661
5.788888888888889,-0.022157631789540885
5.791666666666667,-0.027844493871283536
5.794444444444444,-0.007763726877062609
5.7972222222222225,-0.12518868919828324
5.8,-0.2064688916480331
5.802777777777778,-0.2316500375903718
5.805555555555555,-0.25005326454392063
5.808333333333334,-0.23990831350100478
5.811111111111111,-0.19950473167455415
5.813888888888889,-0.14028606542774863
5.816666666666667,-0.11358519413249503
5.819444444444445,-0.024106518149105263
5.822222222222223,0.47147303337659713
5.825,0.9373843246801393
5.827777777777778,1.2295986904228853
5.830555555555556,1.4277827325129389
5.833333333333334,1.4464620942110962
5.836111111111111,1.297082008211741
5.8388888888888895,0.9192380236864854
5.841666666666667,0.4400917072410664
5.844444444444445,-0.06894207271770178
5.847222222222222,-0.1678508142040226
5.8500000000000005,-0.27212997941496936
5.852777777777778,-0.3126879022818098
5.855555555555556,-0.35921758382642327
5.858333333333333,-0.3729098509904974
5.861111111111112,-0.39147112332441836
5.863888888888889,-0.3079643395807592
5.866666666666667,-0.22310799922477348
5.8694444444444445,-0.12330952166194212
5.872222222222223,-0.03402709619212492
5.875,-0.06640999503066787
5.877777777777778,-0.07783115971207485
5.8805555555555555,-0.05994689946579224
5.883333333333334,-0.04048509737866598
5.886111111111111,-0.10671237302935757
5.888888888888889,-0.05810486791830818
5.891666666666667,-0.03297154428547239
5.894444444444445,-0.0075290244552315075
5.897222222222222,-0.0733461675592682
5.9,-0.04528294168023334
5.902777777777778,-0.0981844348060256
5.905555555555556,-0.08966598190619293
5.908333333333333,-0.07652839026199935
5.911111111111111,-0.0587454351065002
5.913888888888889,0.030527955579323515
5.916666666666667,-0.03438671202512794
5.919444444444444,-0.04888416158091014
5.9222222222222225,0.015917895526132573
5.925,0.045067148055187974
5.927777777777778,0.02704322399523101
5.930555555555555,0.08648996476586279
5.933333333333334,0.05757782462205617
5.936111111111111,0.11361449022873166
5.938888888888889,0.1662865975244879
5.941666666666667,0.08336857323239794
5.944444444444445,0.11444963506825795
5.947222222222223,0.11225730556854566
5.95,0.16950491109705965
5.952777777777778,0.16638420230520037
5.955555555555556,0.20777027904020212
5.958333333333334,0.1885826302267681
5.961111111111111,0.20932312983550946
5.9638888888888895,0.19301708649437133
5.966666666666667,0.2154202649338613
5.969444444444445,0.20442603716110944
5.972222222222222,0.21698535784691272
5.9750000000000005,0.2771933762001421
5.977777777777778,0.2572697379435891
5.980555555555556,0.21975742357501526
5.983333333333333,0.15398207385217128
5.986111111111112,0.25116035510537776
5.988888888888889,0.26082299821918353
5.991666666666667,0.24869033509346533
5.9944444444444445,0.2827012168921573
5.997222222222223,0.21718746188131047
6.0,0.20378819828626127
6.002777777777778,0.3083207626088085
6.0055555555555555,0.2741369572998866
6.008333333333334,0.19611509121756365
6.011111111111111,0.24610542559606752
6.013888888888889,0.22975620232244265
6.016666666666667,0.2187265567254772
6.019444444444445,0.21610838184700343
6.022222222222222,0.1896643059381109
6.025,0.18771221028938334
6.027777777777778,0.19181768146564848
6.030555555555556,0.15869977928016793
6.033333333333333,0.1872350596145559
6.036111111111111,0.1505754968630809
6.038888888888889,0.14600009846444342
6.041666666666667,0.20814433884031924
6.044444444444444,0.13189711457789222
6.0472222222222225,0.04522922962803317
6.05,0.07368710737479016
6.052777777777778,0.08516797471623251
6.055555555555555,0.030415116403628775
6.058333333333334,0.05265185739718769
6.061111111111112,-0.008224294166947175
6.063888888888889,-0.05177433883721793
6.066666666666667,-0.0954864891967093
6.069444444444445,-0.00754031032830001
6.072222222222223,-0.06442607124583112
6.075,-0.033785110816299466
6.077777777777778,-0.058350839589204756
6.080555555555556,-0.02705590036741505
6.083333333333334,-0.01860878354508323
6.086111111111111,-0.03225916832211524
6.0888888888888895,-0.048542891305847956
6.091666666666667,-0.008115975804442538
6.094444444444445,-0.09277418799223129
6.097222222222222,-0.016402177037546897
6.1000000000000005,-0.028198849329859513
6.102777777777778,-0.04513048870668572
6.105555555555556,-0.039500388768482185
6.108333333333333,-0.06609009186927498
6.111111111111112,-0.0672824016527167
6.113888888888889,-0.044768269338882574
6.116666666666667,-0.0842876255068935
6.1194444444444445,-0.04936492670026624
6.122222222222223,-0.012615871300365806
6.125,-0.010251909157492689
6.127777777777778,-0.019770770223547923
6.1305555555555555,-0.04809342845892591
6.133333333333334,-0.06783621422696391
6.136111111111111,-0.018386439341317007
6.138888888888889,-0.036555999257062
6.141666666666667,0.01507216643200994
6.144444444444445,-0.06033835561992388
6.147222222222222,-0.015741657808727366
6.15,-0.02311213853819495
6.152777777777778,-0.037676309974832685
6.155555555555556,-0.03608317957071405
6.158333333333333,-0.05415834848358181
6.161111111111111,-0.05323611004541437
6.163888888888889,-0.07469288369621217
6.166666666666667,0.010981290620246359
6.169444444444444,-0.04348807233084216
6.1722222222222225,-0.028086381573942457
6.175,-0.021184764136135792
6.177777777777778,-0.0595839686086702
6.180555555555555,-0.018653370202796147
6.183333333333334,-0.011913914857604482
6.186111111111112,0.006503806985143502
6.188888888888889,-0.052377418344441234
6.191666666666667,0.0017082252080181243
6.194444444444445,-0.05447002320772116
6.197222222222223,-0.007106193911734546
6.2,-0.0432115436760269
6.202777777777778,0.0054174193585688896
6.205555555555556,-0.0634462946009993
6.208333333333334,0.020996400418702106
6.211111111111111,-0.06737109779145825
6.2138888888888895,-0.053504596058046965
6.216666666666667,-0.03657756373762106
6.219444444444445,-0.05331520902754963
6.222222222222222,-0.0075229598487368855
6.2250000000000005,-0.019794705852586723
6.227777777777778,-0.06875521013762298
6.230555555555556,-0.05819371592570877
6.233333333333333,-0.03229232196324104
6.236111111111112,-0.054688227771030204
6.238888888888889,-0.05508905674804332
6.241666666666667,-0.06906698371329231
6.2444444444444445,-0.012186594157481363
6.247222222222223,-0.02645378896147398
6.25,-0.03289922622271138
6.252777777777778,0.00011862071925121398
6.2555555555555555,-0.011174238376575413
6.258333333333334,-0.0034671026456539605
6.261111111111111,-0.03282090897424
6.263888888888889,-0.04798379088424655
6.266666666666667,-0.0572014582448324
6.269444444444445,-0.00865136310519898
6.272222222222222,0.023955984939024344
6.275,-0.005709730871992086
6.277777777777778,-0.049682694239804634
6.280555555555556,-0.03632652775548545
6.283333333333333,-0.01673533325106064
6.286111111111111,-0.09033938028044852
6.288888888888889,0.02233363034967669
6.291666666666667,-0.014393622717119841
6.294444444444444,-0.06559250319549892
6.2972222222222225,-0.08893522991755794
6.3,-0.03706217550283365
6.302777777777778,-0.06469314439359472
6.305555555555555,-0.019819147777538796
6.308333333333334,0.0088645074905494
6.311111111111112,-0.03138310048801131
6.313888888888889,-0.019814574940598507
6.316666666666667,-0.011494417078204311
6.319444444444445,-0.004085809126937838
6.322222222222223,-0.02546031787938037
6.325,-0.02313078929334564
6.327777777777778,-0.031319957632555906
6.330555555555556,-0.007611075366897712
6.333333333333334,-0.022130338294301038
6.336111111111111,0.014174528560661728
6.3388888888888895,0.0010931987740906528
6.341666666666667,-0.08374988222877702
6.344444444444445,-0.07092967976781157
6.347222222222222,-0.0016425356819272027
6.3500000000000005,-0.021571588453971814
6.352777777777778,-0.04208936192598051
6.355555555555556,-0.059810540285743174
6.358333333333333,-0.07241522070623649
6.361111111111112,-0.05881673217343415
6.363888888888889,0.02705278721778071
6.366666666666667,-0.02133722046342777
6.3694444444444445,-0.0441841955872279
6.372222222222223,-0.015250871906120256
6.375,-0.02281861272688411
6.377777777777778,-0.02792159467448836
6.3805555555555555,-0.032606877089073255
6.383333333333334,-0.02515260126458364
6.386111111111111,-0.03117639359267942
6.388888888888889,-0.0053450844993898385
6.391666666666667,-0.002208888985431364
6.394444444444445,0.004506418949500768
6.397222222222222,-0.0015171080893837743
6.4,-0.0164074180897011
6.402777777777778,-0.025983931762559604
6.405555555555556,0.06523302589990258
6.408333333333333,-0.0015914776157159721
6.411111111111111,-0.02994196532034813
6.413888888888889,-0.040670636524791796
6.416666666666667,0.0002607231733776673
6.419444444444444,-0.024225272032413814
6.4222222222222225,-0.014206955040925133
6.425,-0.03285720580094359
6.427777777777778,0.0072486691235182955
6.430555555555555,-0.014292568438290142
6.433333333333334,-0.0568491211845778
6.436111111111112,0.024306662874919182
6.438888888888889,-0.050482190104962785
6.441666666666667,-0.03328618490975169
6.444444444444445,-0.036513508142993825
6.447222222222223,-0.019182160974940837
6.45,-0.016277439866897954
6.452777777777778,-0.03464888873333601
6.455555555555556,0.009017365064022394
6.458333333333334,-0.05018620374833217
6.461111111111111,0.024618100980970795
6.4638888888888895,0.010130285543103246
6.466666666666667,-0.00421820372073387
6.469444444444445,-0.06180123661598619
6.472222222222222,-0.05316746780829273
6.4750000000000005,0.024748794561913208
6.477777777777778,-0.028820745781636115
6.480555555555556,0.021574866224472876
6.483333333333333,-0.06390980942612735
6.486111111111112,-0.0715087237502077
6.488888888888889,-0.05736000569479878
6.491666666666667,0.026475028742529792
6.4944444444444445,0.056906146076903835
6.497222222222223,0.0011520753782746918
6.5,0.011326299568750794
6.502777777777778,0.07033342151984787
6.5055555555555555,0.06391415895701781
6.508333333333334,0.05403304792225344
6.511111111111111,0.10943257769158936
6.513888888888889,0.07403872883432819
6.516666666666667,0.1018367507767138
6.519444444444445,0.08222845324727693
6.522222222222222,0.10097800196020111
6.525,0.13655014962426437
6.527777777777778,0.060980584795701134
6.530555555555556,0.11884547847763391
6.533333333333333,0.10229895207785189
6.536111111111111,0.16870072536273303
6.538888888888889,0.09476961942386153
6.541666666666667,0.11805207977499863
6.544444444444444,0.14414775702240046
6.5472222222222225,0.15019347712506279
6.55,0.09353782850396335
6.552777777777778,0.07411332832759056
6.555555555555556,0.10914977681126836
6.558333333333334,0.06311267218986716
6.561111111111112,0.05447414441451293
6.563888888888889,0.10355248604929237
6.566666666666667,8.219249110637261e-05
6.569444444444445,0.040730883807736665
6.572222222222223,-0.015620665266797121
6.575,-0.04591827157366277
6.577777777777778,-0.04910338192149576
6.580555555555556,0.017584491093050852
6.583333333333334,-0.05599242426093542
6.586111111111111,0.022684578543645226
6.5888888888888895,0.009522157476022433
6.591666666666667,0.03686511977350254
6.594444444444445,-0.005288782286963629
6.597222222222222,0.01837943087185451
6.6000000000000005,-0.033659616772180094
6.602777777777778,0.0044241710996697796
6.605555555555556,-0.00791215120458065
6.608333333333333,0.006480534236077343
6.611111111111112,0.005651471589958826
6.613888888888889,-0.09669987906546448
6.616666666666667,-0.16842882601277
6.6194444444444445,-0.1627591245104448
6.622222222222223,-0.22259702868347864
6.625,-0.10375714888588548
6.627777777777778,-0.18682746244737714
6.6305555555555555,-0.1025437304230705
6.633333333333334,-0.11701106292205748
6.636111111111111,0.007773472463161131
6.638888888888889,0.4087049718424992
6.641666666666667,0.9792708737799023
6.644444444444445,1.2744361269715103
6.647222222222222,1.5092021693531397
6.65,1.506674895244744
6.652777777777778,1.2879245301167221
6.655555555555556,0.9999230566109832
6.658333333333333,0.509667448186751
6.661111111111111,0.021495967869541797
6.663888888888889,-0.07652953279144117
6.666666666666667,-0.1616325606874065
6.669444444444444,-0.23810452581795524
6.6722222222222225,-0.2737337262810265
6.675,-0.305603846418473
6.677777777777778,-0.30986736815390753
6.680555555555556,-0.18950295124916325
6.683333333333334,-0.19566399713567947
6.686111111111112,-0.07513534045518261
6.688888888888889,-0.014612379600190439
6.691666666666667,0.041720585242411394
6.694444444444445,0.017659819270027452
6.697222222222223,-0.026713180859211542
6.7,0.012310562753989163
6.702777777777778,0.03205513727730894
6.705555555555556,-0.002504924199884314
6.708333333333334,-0.024031960633571735
6.711111111111111,-0.005502491853455996
6.7138888888888895,-0.018177523764974626
6.716666666666667,-0.0010192637410131817
6.719444444444445,0.06656143910801778
6.722222222222222,0.006797145501235098
6.7250000000000005,0.012631432682162998
6.727777777777778,0.0285396732064389
6.730555555555556,-0.008122728478600471
6.733333333333333,0.047602967961957135
6.736111111111112,0.053718293327010405
6.738888888888889,0.03936838863553034
6.741666666666667,0.08357840046342066
6.7444444444444445,0.053764109358733124
6.747222222222223,0.10731487556387521
6.75,0.1536855984617176
6.752777777777778,0.1356856276507479
6.7555555555555555,0.1451645614253953
6.758333333333334,0.19157766844466104
6.761111111111111,0.20241654659614233
6.763888888888889,0.2588441185486406
6.766666666666667,0.2100954792815274
6.769444444444445,0.21045874107604962
6.772222222222222,0.22791561533241786
6.775,0.21259624224926002
6.777777777777778,0.20227343018467883
6.780555555555556,0.22118344643349083
6.783333333333333,0.19572314100464444
6.786111111111111,0.2495534906113887
6.788888888888889,0.3233780509617517
6.791666666666667,0.29436538081897873
6.794444444444444,0.2956154337876707
6.7972222222222225,0.323785368386913
6.8,0.2982549059197647
6.802777777777778,0.3147398784185297
6.805555555555556,0.308768402784567
6.808333333333334,0.3144291726473595
6.811111111111112,0.27318271955870466
6.813888888888889,0.3542571959386546
6.816666666666667,0.28177210923963436
6.819444444444445,0.31231309107504523
6.822222222222223,0.3002896990522987
6.825,0.32572831030200916
6.827777777777778,0.3165911352816726
6.830555555555556,0.23720251011287385
6.833333333333334,0.2422468640878745
6.836111111111111,0.30531000631214533
6.8388888888888895,0.21527043750282387
6.841666666666667,0.29076705914271805
6.844444444444445,0.23203966726644124
6.847222222222222,0.26306737767965355
6.8500000000000005,0.20735758985974925
6.852777777777778,0.18825960873232694
6.855555555555556,0.1745983414808686
6.858333333333333,0.23296513276554776
6.861111111111112,0.10000613582626464
6.863888888888889,0.17079742374349843
6.866666666666667,0.11829322276934078
6.8694444444444445,0.15178717205472902
6.872222222222223,0.12176138810084047
6.875,0.11356422753713431
6.877777777777778,0.1437839481125658
6.8805555555555555,0.08406179009711273
6.883333333333334,0.06610969828977202
6.886111111111111,0.03341626525783598
6.888888888888889,0.054049843350804615
6.891666666666667,0.0009961408050662666
6.894444444444445,0.026920077942425312
6.897222222222222,0.029713640130827657
6.9,0.011995603629532526
6.902777777777778,0.006607851046840819
6.905555555555556,0.07775951268667425
6.908333333333333,0.12016661802157669
6.911111111111111,0.007930471433368506
6.913888888888889,0.00024132547015623396
6.916666666666667,0.021888729334384616
6.919444444444444,0.012617333739213584
6.9222222222222225,0.02656446452023177
6.925,0.00766271817125622
6.927777777777778,0.03987167316977811
6.930555555555556,0.0693352733193439
6.933333333333334,0.02840654049042959
6.936111111111112,0.025985973072884493
6.938888888888889,0.026693350213663317
6.941666666666667,0.009334082426933623
6.944444444444445,0.04570307496599349
6.947222222222223,-0.00821088757809357
6.95,0.051598184756897245
6.952777777777778,0.0807398610221605
6.955555555555556,0.013009926553029804
6.958333333333334,0.03216090655775815
6.961111111111111,0.027315854989572376
6.9638888888888895,0.017754952628335055
6.966666666666667,-0.019797770366801457
6.969444444444445,0.03413707260560908
6.972222222222222,0.010705052047134758
6.9750000000000005,0.020408149553829528
6.977777777777778,0.02549840075563903
6.980555555555556,-0.018471421542915003
6.983333333333333,0.0029658828475705376
6.986111111111112,0.04960667652702986
6.988888888888889,0.037367547470847015
6.991666666666667,0.03625154740156033
6.9944444444444445,0.004248566535100071
6.997222222222223,0.06206357848967878
7.0,0.01751415844548789
7.002777777777778,0.05211905247927022
7.0055555555555555,0.0481748104609528
7.008333333333334,0.07305966987291777
7.011111111111111,0.07311480314808341
7.013888888888889,0.0009829111636089037
7.016666666666667,0.0457824328159388
7.019444444444445,-0.002235740404243014
7.022222222222222,0.00477862061109563
7.025,0.03749724884499126
7.027777777777778,0.025611328428613897
7.030555555555556,0.08353018238278619
7.033333333333333,0.013734517726046301
7.036111111111111,0.02908197095205291
7.038888888888889,0.014333786667553364
7.041666666666667,0.045774668570350924
7.044444444444444,0.028541872669573976
7.0472222222222225,0.02741596165320763
7.050000000000001,0.011828658555936285
7.052777777777778,0.004942352613519253
7.055555555555556,0.027494270546090355
7.058333333333334,0.006922074738188868
7.061111111111112,0.013598998869524797
7.063888888888889,0.06804602294980434
7.066666666666667,0.0888174572686589
7.069444444444445,0.054440088267596415
7.072222222222223,0.051585680566906295
7.075,0.07249391624923326
7.077777777777778,0.048618793062067386
7.080555555555556,-0.036505915628931615
7.083333333333334,0.03868031111821383
7.086111111111111,-0.0016333423640830236
7.0888888888888895,0.03735160753184854
7.091666666666667,0.013255331022614687
7.094444444444445,0.03501063314248574
7.097222222222222,0.03568867211569631
7.1000000000000005,0.02419056882189613
7.102777777777778,0.06200462777694015
7.105555555555556,0.08322696170295807
7.108333333333333,0.02165002794756837
7.111111111111112,0.017129790761196778
7.113888888888889,0.027348950940063625
7.116666666666667,0.04426497949171658
7.1194444444444445,0.08052346358742513
7.122222222222223,0.04367265459651777
7.125,0.044658420601225005
7.127777777777778,0.06839397666879571
7.1305555555555555,0.0384962210660698
7.133333333333334,0.03184535584659776
7.136111111111111,0.023755183509126553
7.138888888888889,0.04858703773806243
7.141666666666667,-0.0283152000584875
7.144444444444445,0.037692848010769914
7.147222222222222,-0.007709388088965395
7.15,0.022248266561615614
7.152777777777778,-0.008316202849169188
7.155555555555556,0.06949599342629044
7.158333333333333,0.04033661515967873
7.161111111111111,0.07040883746588819
7.163888888888889,0.033196612287816424
7.166666666666667,0.01529924696523578
7.169444444444444,-0.0064979005490580916
7.1722222222222225,0.06600443109764706
7.175000000000001,0.05835624257514506
7.177777777777778,0.03161721111493725
7.180555555555556,0.08205426319413517
7.183333333333334,0.06472299936497847
7.186111111111112,0.031257802291270294
7.188888888888889,0.01924221840767465
7.191666666666667,0.0012189228359094709
7.194444444444445,0.06329138903568428
7.197222222222223,0.07053532799804427
7.2,0.06246638760607659
7.202777777777778,0.04744038063446474
7.205555555555556,0.0746996442052049
7.208333333333334,-0.01127093239174387
7.211111111111111,0.06268951493084822
7.2138888888888895,0.041165801441088806
7.216666666666667,0.04468486482374119
7.219444444444445,0.09384035273232649
7.222222222222222,0.0024223752789584926
7.2250000000000005,0.047378510450143935
7.227777777777778,0.10870765545434916
7.230555555555556,0.0252348735388686
7.233333333333333,0.05501058623300913
7.236111111111112,0.09226052656506813
7.238888888888889,0.06653663578918884
7.241666666666667,0.03189847048416391
7.2444444444444445,0.06739140062829127
7.247222222222223,-0.0029026803104880705
7.25,0.06851332044754518
7.252777777777778,0.008533378379375726
7.2555555555555555,0.0356736016186191
7.258333333333334,0.008929705081527642
7.261111111111111,0.04689824133073099
7.263888888888889,0.018456587303664493
7.266666666666667,0.01432721767536245
7.269444444444445,0.08646754381389035
7.272222222222222,0.09420393899537424
7.275,0.05333313221268973
7.277777777777778,0.01742749287953797
7.280555555555556,-0.004445378011008971
7.283333333333333,0.0147024342005419
7.286111111111111,0.007616064659787779
7.288888888888889,0.06117778124703599
7.291666666666667,0.061850459526916576
7.294444444444444,0.05233711116319919
7.2972222222222225,0.022772812532456638
7.300000000000001,0.052932181413021105
7.302777777777778,-0.009311173518438909
7.305555555555556,0.015030749843127397
7.308333333333334,0.06686302207402656
7.311111111111112,0.004663897592944527
7.313888888888889,0.051771852455813006
7.316666666666667,0.10475631721245696
7.319444444444445,0.04233905401165127
7.322222222222223,0.033262148192067076
7.325,0.021970594080200228
7.327777777777778,0.06651960825960423
7.330555555555556,0.08117611600930821
7.333333333333334,0.12040906254844391
7.336111111111111,0.0996230862560412
7.3388888888888895,0.0823123400451766
7.341666666666667,0.1420087898957737
7.344444444444445,0.09192589624059734
7.347222222222222,0.16784391586107622
7.3500000000000005,0.18112836287788986
7.352777777777778,0.19005864862004415
7.355555555555556,0.1783312767063739
7.358333333333333,0.15220025501156334
7.361111111111112,0.22611810664352863
7.363888888888889,0.1494079245817787
7.366666666666667,0.2045930844409673
7.3694444444444445,0.23745866823044498
7.372222222222223,0.18467927769840436
7.375,0.2032643597947236
7.377777777777778,0.20555087845515282
7.3805555555555555,0.18083559273346234
7.383333333333334,0.17089832721031256
7.386111111111111,0.09584084547272274
7.388888888888889,0.14995801862345423
7.391666666666667,0.12600218772726976
7.394444444444445,0.16987758063077982
7.397222222222222,0.09696982984967852
7.4,0.12852180099028715
7.402777777777778,0.10997266687915117
7.405555555555556,0.038164583985486375
7.408333333333333,0.04093733274014678
7.411111111111111,0.023694262122094432
7.413888888888889,0.02046564028551881
7.416666666666667,0.027815318098888875
7.419444444444444,0.05408782876595834
7.4222222222222225,0.14503477484711974
7.425000000000001,0.00020339332754652079
7.427777777777778,0.05246578695566031
7.430555555555556,0.025868751354466986
7.433333333333334,0.025565550288925536
7.436111111111112,0.08058342615755276
7.438888888888889,0.05761251368592482
7.441666666666667,0.045702372730324424
7.444444444444445,0.03238371329298498
7.447222222222223,-0.013935530038279402
7.45,0.008225255595221852
7.452777777777778,-0.06802012224235368
7.455555555555556,-0.11455328163290633
7.458333333333334,-0.18140499248413522
7.461111111111111,-0.1454727083325655
7.4638888888888895,-0.048563974349826775
7.466666666666667,-0.08028030054106533
7.469444444444445,-0.0007577970455568059
7.472222222222222,0.09485752995153869
7.4750000000000005,0.5572453370537903
7.477777777777778,0.9962970005830187
7.480555555555556,1.3473862421063427
7.483333333333333,1.5601673496412107
7.486111111111112,1.6110524310926067
7.488888888888889,1.362027484601002
7.491666666666667,1.0003483875834807
7.4944444444444445,0.5155803429268495
7.497222222222223,-0.0004257594676273929
7.5,-0.022256354557990955
7.502777777777778,-0.1532012835455203
7.5055555555555555,-0.16732263101455103
7.508333333333334,-0.27307704381071346
7.511111111111111,-0.19638031637897543
7.513888888888889,-0.23478635703487669
7.516666666666667,-0.19010077377703144
7.519444444444445,-0.13325459276338109
7.522222222222222,-0.007544002949260123
7.525,-0.018184993797570548
7.527777777777778,0.036384415248116045
7.530555555555556,0.0789689657112405
7.533333333333333,0.03298172372334077
7.536111111111111,0.06480878799021986
7.538888888888889,0.07065320113730351
7.541666666666667,0.07475367236675569
7.544444444444445,0.02682451438640881
7.5472222222222225,0.03070485066879989
7.550000000000001,0.0872945412880063
7.552777777777778,0.10689039872924844
7.555555555555556,0.018939010575546734
7.558333333333334,0.029744335997905897
7.561111111111112,0.09521656619390514
7.563888888888889,0.10443062795928944
7.566666666666667,0.042329678897313774
7.569444444444445,0.06302362285956464
7.572222222222223,0.11911056697093984
7.575,0.1415490651439332
7.577777777777778,0.1811171219032873
7.580555555555556,0.11615949769371293
7.583333333333334,0.17000510788198156
7.586111111111111,0.1486150475096276
7.5888888888888895,0.216590484743275
7.591666666666667,0.20087879934330474
7.594444444444445,0.21371108700572544
7.597222222222222,0.23825646409792667
7.6000000000000005,0.20567236632442037
7.602777777777778,0.2698180174187902
7.605555555555556,0.25195140767223473
7.608333333333333,0.293184970524227
7.611111111111112,0.31815759780988817
7.613888888888889,0.298959236699665
7.616666666666667,0.26704382654457387
7.6194444444444445,0.31699303733360273
7.622222222222223,0.3290433401826317
7.625,0.31091273790968077
7.627777777777778,0.3107744590543683
7.6305555555555555,0.3277978183435727
7.633333333333334,0.36195483975820913
7.636111111111111,0.35587023389093164
7.638888888888889,0.3555837327201335
7.641666666666667,0.32569729168491157
7.644444444444445,0.3044693815323118
7.647222222222222,0.37880688435767024
7.65,0.341757131689567
7.652777777777778,0.3129941555201827
7.655555555555556,0.31834544578953783
7.658333333333333,0.3840565825414905
7.661111111111111,0.3595124671252837
7.663888888888889,0.34721836000154055
7.666666666666667,0.31856854721918143
7.669444444444445,0.34365065530146893
7.6722222222222225,0.3205330511843648
7.675000000000001,0.271113856725099
7.677777777777778,0.2903162850201709
7.680555555555556,0.26212843559057303
7.683333333333334,0.2491244613924537
7.686111111111112,0.2899025662418227
7.688888888888889,0.2670039038492165
7.691666666666667,0.2201820887824046
7.694444444444445,0.17008087669367045
7.697222222222223,0.18697295500434868
7.7,0.21691388575261975
7.702777777777778,0.17707739636661352
7.705555555555556,0.17199265629791466
7.708333333333334,0.1390590132386516
7.711111111111111,0.14740538725908556
7.7138888888888895,0.13009420558087248
7.716666666666667,0.06890800250901824
7.719444444444445,0.05888189694423696
7.722222222222222,0.029894832756577727
7.7250000000000005,0.04846511929363379
7.727777777777778,0.046032271444472764
7.730555555555556,0.06587404554133175
7.733333333333333,0.05341331063853768
7.736111111111112,0.01859183172972618
7.738888888888889,-0.012366096075885569
7.741666666666667,0.06790937284061285
7.7444444444444445,0.04261465956374835
7.747222222222223,0.03735016754389797
7.75,0.01741242868299201
7.752777777777778,-0.0058868411050529285
7.7555555555555555,0.053384965261928444
7.758333333333334,0.029475681269530634
7.761111111111111,0.0586207477175892
7.763888888888889,0.05448828132534177
7.766666666666667,0.018922091421234064
7.769444444444445,0.04712353724529945
7.772222222222222,0.03067449342578333
7.775,-0.0008790773156605314
7.777777777777778,0.06440848388955947
7.780555555555556,0.046442848565114284
7.783333333333333,0.026336479085778273
7.786111111111111,0.07976561705276103
7.788888888888889,0.057633303997524456
7.791666666666667,0.061251580321284485
7.794444444444445,0.006009429485969428
7.7972222222222225,0.03683268322019583
7.800000000000001,0.03761469587429408
7.802777777777778,0.026960063293060686
7.805555555555556,0.04348985359160333
7.808333333333334,0.06700588574828846
7.811111111111112,0.048439507225434796
7.813888888888889,0.07709104439397449
7.816666666666667,0.039666365061937645
7.819444444444445,0.02805215450169942
7.822222222222223,0.02647159990324239
7.825,0.07757874833514186
7.827777777777778,0.06957152632978336
7.830555555555556,0.005380412713679061
7.833333333333334,0.007158259234817187
7.836111111111111,0.06657852828701878
7.8388888888888895,0.044346729658481944
7.841666666666667,0.0085678195080032
7.844444444444445,0.08401073219517978
7.847222222222222,0.0529747386261758
7.8500000000000005,0.017724608667976444
7.852777777777778,0.06705714560214027
7.855555555555556,0.02386253263936848
7.858333333333333,0.06852697586248334
7.861111111111112,-0.0013988040165529986
7.863888888888889,0.03647878961819555
7.866666666666667,0.025570274198450572
7.8694444444444445,0.023056976703311607
7.872222222222223,0.04702190878541765
7.875,0.05368988647996876
7.877777777777778,0.06786255471143829
7.8805555555555555,0.06467786106999196
7.883333333333334,-0.01242488683855325
7.886111111111111,0.06705469855176441
7.888888888888889,0.0010316898971001118
7.891666666666667,-0.008991695921091218
7.894444444444445,0.007647253319484806
7.897222222222222,0.06953648789769376
7.9,0.014903003950611268
7.902777777777778,0.026049495685658834
7.905555555555556,0.05207692640191837
7.908333333333333,0.04243356217264356
7.911111111111111,0.03932983328868992
7.913888888888889,-0.03069462720401784
7.916666666666667,0.0506906539637326
7.919444444444445,0.02648432042546519
7.9222222222222225,0.028437632606076114
7.925000000000001,0.04212182621364623
7.927777777777778,0.002394948365538725
7.930555555555556,0.026986662188866566
7.933333333333334,-0.012047245572174917
7.936111111111112,-0.013396330071656484
7.938888888888889,-0.022399442041757832
7.941666666666667,0.05125404618796878
7.944444444444445,-0.009769756925158177
7.947222222222223,0.023769922702109474
7.95,0.07415699929048924
7.952777777777778,-0.007362759422509697
7.955555555555556,0.0851547464099988
7.958333333333334,0.030858327624298826
7.961111111111111,0.01511767953642362
7.9638888888888895,0.10129055602524871
7.966666666666667,0.036300058300006835
7.969444444444445,0.0422454687733001
7.972222222222222,0.06492284624471084
7.9750000000000005,0.025474815868141074
7.977777777777778,0.036775582944495004
7.980555555555556,0.0222708907236425
7.983333333333333,0.04426688867482727
7.986111111111112,0.09835301895406054
7.988888888888889,0.0373988783040303
7.991666666666667,0.07267094148359807
7.9944444444444445,0.052564670052065526
7.997222222222223,-0.03437367886831147
8.0,0.047680768411853626
8.002777777777778,-0.0214055870743153
8.005555555555556,0.02919005528485171
8.008333333333333,-0.016023340854147597
8.011111111111111,0.07859093681431134
8.01388888888889,0.06600064932365357
8.016666666666667,0.02280109943647471
8.019444444444444,0.06534782988741766
8.022222222222222,0.05596156766178175
8.025,0.04869587488695934
8.027777777777779,0.06566348465310644
8.030555555555555,0.042068088576162455
8.033333333333333,0.02541021998980333
8.036111111111111,0.02865849457172794
8.03888888888889,0.03288885492544004
8.041666666666668,0.030490380090272322
8.044444444444444,0.024404848103338275
8.047222222222222,0.06802023428091075
8.05,0.01221196150088281
8.052777777777779,0.0247243061938168
8.055555555555555,0.009350121199615199
8.058333333333334,0.09630291972581624
8.061111111111112,0.019885029526032112
8.06388888888889,0.04883220970877331
8.066666666666666,0.011416519849099954
8.069444444444445,0.033147954615329885
8.072222222222223,0.0443532262101306
8.075000000000001,0.06171615909380471
8.077777777777778,0.03275319673448527
8.080555555555556,0.02157569407029363
8.083333333333334,0.015325215225957197
8.086111111111112,0.030377958753962243
8.088888888888889,-0.0070972796588349325
8.091666666666667,-0.01955155295230527
8.094444444444445,0.01793207909014351
8.097222222222223,0.07642062814157392
8.1,0.004150258051105513
8.102777777777778,-0.0158994865270462
8.105555555555556,0.04965761794572067
8.108333333333334,0.04721319776693237
8.11111111111111,0.023702079784555685
8.113888888888889,0.015187922400541756
8.116666666666667,0.0205630391920744
8.119444444444445,0.038782657837897014
8.122222222222222,0.018218665621029195
8.125,0.02610645781584644
8.127777777777778,0.023655468612329644
8.130555555555556,0.04985413945287297
8.133333333333333,0.03263791481924528
8.136111111111111,0.01678078117906696
8.13888888888889,-0.034774599663389055
8.141666666666667,-0.005835830422968112
8.144444444444444,0.06370471332638647
8.147222222222222,0.018604083881581624
8.15,-0.01547645465846351
8.152777777777779,0.02601934631508364
8.155555555555555,-0.001942095406448751
8.158333333333333,0.0072190519931853835
8.161111111111111,-0.025444489012594575
8.16388888888889,0.012100968532126551
8.166666666666668,-0.026204206451938487
8.169444444444444,-0.014084311154249041
8.172222222222222,-0.01834630892949546
8.175,-0.020996004066214085
8.177777777777779,0.013259253691786113
8.180555555555555,0.06371191725356525
8.183333333333334,0.0026917537195681566
8.186111111111112,0.001410321195966964
8.18888888888889,0.01741993747716583
8.191666666666666,-0.00958313664163258
8.194444444444445,0.05487918490509023
8.197222222222223,0.08386130628031732
8.200000000000001,0.0775154394156491
8.202777777777778,0.04350938029154885
8.205555555555556,0.094487157042941
8.208333333333334,0.09271978782728646
8.211111111111112,0.11766103914015041
8.213888888888889,0.11113258886825696
8.216666666666667,0.09107775166984836
8.219444444444445,0.19119959333305125
8.222222222222223,0.1203292157675738
8.225,0.19840646712458285
8.227777777777778,0.1642916569076808
8.230555555555556,0.1578621539203885
8.233333333333334,0.14244077820078738
8.23611111111111,0.1730286412617174
8.238888888888889,0.12883076722791298
8.241666666666667,0.14593370278883294
8.244444444444445,0.10705566518713072
8.247222222222222,0.12249691859665472
8.25,0.0935648449769298
8.252777777777778,0.1355783537348491
8.255555555555556,0.09828232375918304
8.258333333333333,0.11617155997657796
8.261111111111111,0.04920478942724083
8.26388888888889,0.0011463054025175473
8.266666666666667,0.025393926478243463
8.269444444444444,-0.01609814888532716
8.272222222222222,0.03487580000987947
8.275,-0.009928380484592523
8.277777777777779,0.013583591749187432
8.280555555555555,-0.05506038680759602
8.283333333333333,0.06383042235667745
8.286111111111111,0.01291611042207157
8.28888888888889,-0.00617109698615105
8.291666666666668,0.03495431975047519
8.294444444444444,-0.053474407141722496
8.297222222222222,-0.001788219663512917
8.3,-0.015284062265608404
8.302777777777779,0.06239741190913672
8.305555555555555,0.029471547777793643
8.308333333333334,-0.03411635116242383
8.311111111111112,-0.10016186881004652
8.31388888888889,-0.12730186588324147
8.316666666666666,-0.18072359691214793
8.319444444444445,-0.1993653617976305
8.322222222222223,-0.20945487104324473
8.325000000000001,-0.10510068710329261
8.327777777777778,-0.16010009234763528
8.330555555555556,-0.08294478865884414
8.333333333333334,0.007206060125730911
8.336111111111112,0.5031481625112549
8.338888888888889,0.9352085879977118
8.341666666666667,1.2975044135734006
8.344444444444445,1.4882951141741778
8.347222222222223,1.4729494243716337
8.35,1.2977506428474803
8.352777777777778,0.9765694914952046
8.355555555555556,0.5154786241221455
8.358333333333334,0.00958534147193933
8.36111111111111,-0.07061507106802964
8.363888888888889,-0.16490378745463513
8.366666666666667,-0.21152509370915518
8.369444444444445,-0.26064449344458024
8.372222222222222,-0.32757494906778123
8.375,-0.2943105633139706
8.377777777777778,-0.2235424862716351
8.380555555555556,-0.20421989327141526
8.383333333333333,-0.08111836526841393
8.386111111111111,0.02659962330435732
8.38888888888889,-0.042649719998458874
8.391666666666667,-0.027092222794682253
8.394444444444444,-0.020642189879668694
8.397222222222222,0.026445316119058638
8.4,-0.0065924379216774345
8.402777777777779,-0.005055120659176734
8.405555555555555,-0.08758149233319319
8.408333333333333,-0.037214831758109225
8.411111111111111,-0.03927542776024716
8.41388888888889,-0.015119164264345814
8.416666666666668,-0.015333477519540353
8.419444444444444,0.029333851277910324
8.422222222222222,0.005820695455307709
8.425,0.015806687641923174
8.427777777777779,0.007153926859656859
8.430555555555555,0.015377745793041804
8.433333333333334,0.04350152544691535
8.436111111111112,0.036197058836082326
8.43888888888889,0.09179015758650327
8.441666666666666,0.1011603917495184
8.444444444444445,0.1269850362130209
8.447222222222223,0.1520687670225839
8.450000000000001,0.15671671577052576
8.452777777777778,0.16598396828445394
8.455555555555556,0.20067089056387136
8.458333333333334,0.1637718458780879
8.461111111111112,0.15996563813167228
8.463888888888889,0.1972349485123479
8.466666666666667,0.2248789429796908
8.469444444444445,0.23708194811121236
8.472222222222223,0.23652510902633575
8.475,0.27625798900178955
8.477777777777778,0.2405584148306119
8.480555555555556,0.21983788621851924
8.483333333333334,0.2751504132229465
8.48611111111111,0.2339220874563685
8.488888888888889,0.24728163653314533
8.491666666666667,0.2697262259949302
8.494444444444445,0.26531764099671246
8.497222222222222,0.30372578882463735
8.5,0.25635833546940073
8.502777777777778,0.288436392177531
8.505555555555556,0.2719247373933723
8.508333333333333,0.26637406241949746
8.511111111111111,0.2479457080654079
8.51388888888889,0.2592183823246559
8.516666666666667,0.28003709074373134
8.519444444444444,0.248912219360241
8.522222222222222,0.25873194524539317
8.525,0.3004982459956369
8.527777777777779,0.23385267195892934
8.530555555555555,0.31052285830120485
8.533333333333333,0.17407152945550713
8.536111111111111,0.20363893889656784
8.53888888888889,0.2530780971755059
8.541666666666668,0.23746138556562285
8.544444444444444,0.21139809485567593
8.547222222222222,0.17111884652303017
8.55,0.19008727178897403
8.552777777777779,0.1614810668299757
8.555555555555555,0.20869648894326653
8.558333333333334,0.14745229803203766
8.561111111111112,0.07463545366443436
8.56388888888889,0.12902645225593268
8.566666666666666,0.07617507295293416
8.569444444444445,0.03504343623888335
8.572222222222223,0.09841799144012475
8.575000000000001,0.0889549793879141
8.577777777777778,0.06701030399368381
8.580555555555556,0.03699896440607879
8.583333333333334,-0.04345277471478384
8.586111111111112,-0.0418475131950548
8.588888888888889,-0.021595045556846205
8.591666666666667,-0.017845390354876152
8.594444444444445,-0.050783435753895975
8.597222222222223,-0.05540384929987534
8.6,-0.03406342781481237
8.602777777777778,-0.05968350221989865
8.605555555555556,-0.0021938616500096764
8.608333333333334,0.015778680677130986
8.61111111111111,-0.003174414915306449
8.613888888888889,-0.10085776440716968
8.616666666666667,-0.04776947736376059
8.619444444444445,-0.0651875782847599
8.622222222222222,-0.025389776975152923
8.625,-0.03421301881185761
8.627777777777778,0.05113871132612133
8.630555555555556,-0.029581603583488887
8.633333333333333,-0.05614249598550995
8.636111111111111,0.01900720871301978
8.63888888888889,-0.022378109689472462
8.641666666666667,-0.06405466168262812
8.644444444444444,0.01225087852792018
8.647222222222222,0.018639838564659943
8.65,-0.009052599222617704
8.652777777777779,-0.055111201148445935
8.655555555555555,-0.0508348019643973
8.658333333333333,-0.024438298460174337
8.661111111111111,-0.03631249114974983
8.66388888888889,-0.04729030052110118
8.666666666666668,-0.07913045076461239
8.669444444444444,-0.03885998365417896
8.672222222222222,-0.05197553711267208
8.675,-0.022188702298216012
8.677777777777779,0.02146964650915296
8.680555555555555,-0.011499168137637013
8.683333333333334,-0.07717220564435008
8.686111111111112,0.0013815247087491343
8.68888888888889,-0.03438667142070839
8.691666666666666,0.013527149986949441
8.694444444444445,-0.012506930451722527
8.697222222222223,-0.024772395967936654
8.700000000000001,-0.02562849028761674
8.702777777777778,-0.06629417851412267
8.705555555555556,-0.024726678584169055
8.708333333333334,-0.06861785533710243
8.711111111111112,0.009782277908173813
8.713888888888889,-0.0020259550683690425
8.716666666666667,-0.0329179906004852
8.719444444444445,-0.051919371322450725
8.722222222222223,-0.05175433499566033
8.725,-0.04413573709671071
8.727777777777778,-0.09986720679650532
8.730555555555556,-0.0031483403171868665
8.733333333333334,-0.09514235712042753
8.73611111111111,-0.04261246602051702
8.738888888888889,-0.007416730710832473
8.741666666666667,-0.052835087344984946
8.744444444444445,-0.02221763671739818
8.747222222222222,-0.04966227577297761
8.75,-0.06010657668150231
8.752777777777778,-0.022822288338368763
8.755555555555556,-0.04753772853705218
8.758333333333333,0.02104589883598104
8.761111111111111,-0.03722955357693981
8.76388888888889,-0.06897010583208114
8.766666666666667,-0.0005477994368978875
8.769444444444444,-0.031216344491432416
8.772222222222222,0.023387465099833464
8.775,-0.03498071809877533
8.777777777777779,-0.03910124336085435
8.780555555555555,-0.03771555793860595
8.783333333333333,-0.03446011182369818
8.786111111111111,-0.04157685950170476
8.78888888888889,0.007028811546140913
8.791666666666668,-0.01813958850986544
8.794444444444444,-0.011914727227981696
8.797222222222222,-0.07165377377620072
8.8,-0.08588971307102006
